################################################################################
# EDF_DataBlockID                     0.Image.Psd
# EDF_BinarySize                      4366944
# EDF_HeaderSize                      2560
# ByteOrder                           LowByteFirst
# DataType                            FloatValue
# Dim_1                               1028
# Dim_2                               1062
# Image                               0
# HeaderID                            EH:000000:000000:000000
# Size                                4366944
# Center_1                            607.5200
# Center_2                            651.5500
# Comment                             Xenocs_Cell_Window - 20251028_20perc_iodine_1.23mg
# DDummy                              0.6
# Date                                2025-10-29T01:17:09
# Delta                               0
# Dummy                               -1.5
# ExposureTime                        360
# Gamma                               0
# Intensity1                          8.48394e-10
# PSize_1                             7.5e-05
# PSize_2                             7.5e-05
# Pressure                            0.033741
# SampleDistance                      0.450002
# SampleEnvKind                       large
# SampleEnvPN                         ElectroChemical cell
# SampleEnvSN                         1141
# Thickness                           0
# Wavelength                          1.541891e-10
# Wavelength                          1.54189e-10
# aux                                 0
# aux_dial                            0.002375
# beamx                               588.434
# beamx_dial                          588.434
# beamz                               657.808
# beamz_dial                          657.808
# det0x                               0
# det0x_dial                          6.36945
# det0xvd                             0
# det0xvd_dial                        0
# det0y                               450.002
# det0y_dial                          481.635
# det0z                               0
# det0z_dial                          1.23302
# det0zvd                             0
# det0zvd_dial                        0
# mag                                 1.818
# mag_dial                            1.818
# om                                  0.2499
# om_dial                             -0.610199
# phi                                 -0.0120535
# phi_dial                            0
# ry                                  0.599993
# ry_dial                             0.599993
# s1bot                               0.8
# s1bot_dial                          -1.66094
# s1hl                                0.8
# s1hl_dial                           -0.608437
# s1hr                                0.8
# s1hr_dial                           0.970938
# s1top                               0.8
# s1top_dial                          -0.461562
# s2bot                               0.45
# s2bot_dial                          1.36109
# s2hl                                0.45
# s2hl_dial                           -0.83375
# s2hr                                0.45
# s2hr_dial                           -0.118594
# s2top                               0.45
# s2top_dial                          1.44734
# w2theta                             32
# w2theta_dial                        32
# waxsch                              19.2605
# waxsch_dial                         -32.7355
# waxsh                               137.085
# waxsh_dial                          -43.5338
# waxsth                              26.0607
# waxsth_dial                         -19.4086
# waxsz                               67.0407
# waxsz_dial                          -23.7954
# wind                                65.9854
# wind_dial                           66.0041
# wpsi                                124
# wpsi_dial                           124
# wstod                               115
# wstod_dial                          115
# x                                   0
# x_dial                              1.00969
# z                                   0
# z_dial                              13.3172
# CountCutoff                         15302352
# DetectorModel                       Dectris EIGER2 Si 1M, S/N E-02-0362
# ThresholdSetting                    4023.88989258
# Saturation                          0
# FlatField                           Corrected
# BackgroundReductionExtra            0.02
# BackgroundCorrectionConstant        0.0026712
# Detector                            0
# Monitor                             0
# Pil_Roi0                            0
# SumForIntensity1                    3.05422e+08
# TransmittedFlux                     848394
# det                                 0
# mon                                 0
# pilai0                              3.05422e+08
# pilai1                              773621
# pilct0                              5.29403e+08
# pilct1                              773621
# pilroi0                             0
# pilroi1                             0
# sec                                 1
# title                               20251028_20perc_iodine_1.23mg_0_00099.edf
# usaxs0                              0
# Operation                           Azimuthal average I(q)
# Error_model                         ErrorModel.poisson
# Geometrical_correction              True
# Transmission_correction             True
# Thickness_correction                False
# Binning mode                        Uniform
# Binning factor                      1.0
# Psi                                 0.0
# Omega                               0.2499
# MaskInvalidPixels                   True
# DetectorEdge                        3
# MaskFiles                           ['20251028_20perc_iodine_1.23mg_0_00012_mask.edf']
################################################################################
    q(A⁻¹)                Intensity(a.u.)            Sigma_I(a.u.)            
       0.000340                371751.729                120.856222           
       0.001019                360227.896                72.8528982           
       0.001698                350678.729                 50.827402           
       0.002377                 330795.07                44.1537667           
       0.003056                307014.695                35.9504126           
       0.003735                253530.415                28.8115874           
       0.004415                 205428.88                25.9348061           
       0.005094                153587.084                19.4204978           
       0.005773                  101453.6                14.6131384           
       0.006452                59110.1388                10.6873497           
       0.007131                32406.9409                7.66595855           
       0.007810                16244.5658                 5.3862487           
       0.008490                 8120.8719                3.37571848           
       0.009169                3899.28475                2.31178812           
       0.009848                1204.58696                1.24231063           
       0.010527                465.506285               0.772278879           
       0.011206                118.032189                0.37114629           
       0.011885                55.1024796                0.23561261           
       0.012564                25.4151573               0.164282434           
       0.013244                17.1733589               0.126250273           
       0.013923                12.6116343                0.10993603           
       0.014602                9.66789283              0.0892699318           
       0.015281                7.60009369              0.0805707927           
       0.015960                6.26935758              0.0726533446           
       0.016639                5.04122262              0.0615214624           
       0.017319                4.25859274              0.0556652988           
       0.017998                3.58954114              0.0488925086           
       0.018677                3.00479455              0.0463313968           
       0.019356                2.57955121              0.0424169253           
       0.020035                2.18686668              0.0366413544           
       0.020714                1.92367037              0.0347294517           
       0.021394                 1.6417355              0.0303566642           
       0.022073                1.48982794              0.0300870682           
       0.022752                1.27014704              0.0265749428           
       0.023431                1.13296098              0.0243629632           
       0.024110                1.02938334              0.0242112888           
       0.024789               0.940659661              0.0214944235           
       0.025469               0.830348163              0.0208109413           
       0.026148               0.763211988              0.0187464543           
       0.026827               0.712588137              0.0184039354           
       0.027506               0.628198951              0.0175290362           
       0.028185               0.587044195              0.0161596201           
       0.028864               0.543574432              0.0154625659           
       0.029544               0.488803435              0.0142188654           
       0.030223               0.446582669               0.013785804           
       0.030902               0.394354812              0.0130731718           
       0.031581               0.378155295              0.0121695499           
       0.032260               0.342293628              0.0117754208           
       0.032939               0.328823573              0.0111284249           
       0.033619               0.322128234              0.0111764244           
       0.034298               0.277686741              0.0100983691           
       0.034977                0.26038479             0.00958653571           
       0.035656               0.251632855             0.00967346589           
       0.036335               0.220265642              0.0087778354           
       0.037014               0.215767706             0.00871366363           
       0.037693               0.207145784             0.00821324435           
       0.038373               0.193149851             0.00800875513           
       0.039052               0.164920117             0.00743187702           
       0.039731               0.174203691             0.00746018429           
       0.040410               0.164320691             0.00719689986           
       0.041089               0.160398198             0.00699910195           
       0.041768               0.157549933             0.00697292124           
       0.042448                 0.1337366             0.00637452345           
       0.043127               0.153789159             0.00667429259           
       0.043806               0.143774003             0.00650142786           
       0.044485               0.122187499               0.005870393           
       0.045164               0.112303313             0.00573886972           
       0.045843               0.113571751             0.00553526946           
       0.046523               0.121155075             0.00573682378           
       0.047202                0.11789623             0.00569868812           
       0.047881               0.104305573             0.00525680443           
       0.048560               0.103588347             0.00528644931           
       0.049239              0.0972514078             0.00491823679           
       0.049918               0.095945079             0.00498059144           
       0.050598              0.0909982651             0.00477772288           
       0.051277              0.0917322288             0.00478173036           
       0.051956              0.0868605101             0.00462380472           
       0.052635              0.0858244606             0.00449860645           
       0.053314              0.0801059284             0.00447321927           
       0.053993              0.0779879796             0.00429263367           
       0.054673              0.0715341395             0.00401960298           
       0.055352               0.072014854             0.00409232651           
       0.056031              0.0705208011             0.00396456448           
       0.056710              0.0735803935             0.00414889053           
       0.057389              0.0797814559             0.00416599784           
       0.058068              0.0692290448             0.00392072306           
       0.058748              0.0693644856             0.00397351187           
       0.059427              0.0714799427               0.003965355           
       0.060106              0.0629007525             0.00375499192           
       0.060785              0.0686289979             0.00380472708           
       0.061464              0.0649055839             0.00378926213           
       0.062143              0.0645427849             0.00374027258           
       0.062822              0.0536507258             0.00337008395           
       0.063502              0.0579975728             0.00349768919           
       0.064181              0.0580352352             0.00346187787           
       0.064860              0.0549034301             0.00341845991           
       0.065539              0.0507630147             0.00325489379           
       0.066218               0.057561213             0.00339178304           
       0.066897              0.0470851269             0.00309132523           
       0.067577              0.0461182176             0.00308881236           
       0.068256               0.052134382             0.00336478025           
       0.068935              0.0479381746             0.00317435611           
       0.069614              0.0469812192             0.00317379579           
       0.070293               0.052213344             0.00337671117           
       0.070972              0.0460781016              0.0031489003           
       0.071652              0.0452478834               0.003126127           
       0.072331              0.0513204882             0.00326996359           
       0.073010              0.0427014733             0.00305091765           
       0.073689              0.0444651669             0.00309617806           
       0.074368              0.0425895462             0.00302466243           
       0.075047              0.0412303913             0.00294402082           
       0.075727              0.0444703217              0.0030386213           
       0.076406              0.0402619794             0.00294895994           
       0.077085              0.0409817852             0.00291960147           
       0.077764               0.035954868             0.00272510057           
       0.078443               0.042689165             0.00298774211           
       0.079122              0.0437050235              0.0029940405           
       0.079802              0.0372991251             0.00279526596           
       0.080481              0.0352227947             0.00262472259           
       0.081160              0.0370947626             0.00274883926           
       0.081839              0.0357392195             0.00265495058           
       0.082518              0.0358159399             0.00266003709           
       0.083197              0.0327588553             0.00250445303           
       0.083876              0.0313271202              0.0024084169           
       0.084556              0.0379196919             0.00272343579           
       0.085235              0.0411961397             0.00278381352           
       0.085914              0.0330497107             0.00251764325           
       0.086593              0.0342927064              0.0025480448           
       0.087272               0.031816313             0.00241962708           
       0.087951              0.0293183428             0.00237516796           
       0.088631              0.0312514647             0.00236869816           
       0.089310              0.0349886876              0.0025594884           
       0.089989              0.0312589094             0.00239094213           
       0.090668              0.0319751556             0.00244487159           
       0.091347              0.0344037309              0.0025502177           
       0.092026              0.0359158644             0.00249058894           
       0.092706              0.0336061514             0.00249662078           
       0.093385              0.0303800345             0.00233731059           
       0.094064              0.0337138028             0.00249087277           
       0.094743              0.0321453456             0.00239517646           
       0.095422              0.0327840402              0.0023918814           
       0.096101              0.0279877794             0.00225551742           
       0.096781               0.030165521             0.00230809694           
       0.097460              0.0306444581             0.00226288802           
       0.098139               0.034398339             0.00237903708           
       0.098818              0.0292727921             0.00216761962           
       0.099497               0.030533605             0.00221835374           
       0.100176              0.0270119081              0.0020317438           
       0.100856              0.0272222796             0.00203833317           
       0.101535              0.0242484946             0.00192006933           
       0.102214              0.0241081711             0.00191451751           
       0.102893              0.0269527183             0.00200125222           
       0.103572              0.0260445319             0.00193818478           
       0.104251              0.0229893477             0.00182768628           
       0.104931              0.0282810001             0.00200869391           
       0.105610               0.024354174             0.00187198216           
       0.106289              0.0280797207             0.00197662017           
       0.106968              0.0282165971             0.00198731234           
       0.107647              0.0268229095             0.00193877464           
       0.108326              0.0233871224             0.00178613235           
       0.109005              0.0245835995             0.00181972971           
       0.109685              0.0229439442             0.00173827782           
       0.110364               0.024293635             0.00180899053           
       0.111043              0.0220834802             0.00171790216           
       0.111722              0.0249307028             0.00180298016           
       0.112401              0.0251593051             0.00181626425           
       0.113080              0.0221543204             0.00168481956           
       0.113760              0.0229309077             0.00174272469           
       0.114439              0.0235599325             0.00174125505           
       0.115118              0.0254779174             0.00179709169           
       0.115797              0.0203068652             0.00161925236           
       0.116476              0.0245570053             0.00175400787           
       0.117155              0.0215401668             0.00165598756           
       0.117835              0.0226251788             0.00166344294           
       0.118514              0.0217308525             0.00165090579           
       0.119193              0.0225923751             0.00168332504           
       0.119872              0.0214244545              0.0016187368           
       0.120551              0.0236686061             0.00169007175           
       0.121230              0.0217442036             0.00160360711           
       0.121910              0.0220867961             0.00163181066           
       0.122589              0.0195711491             0.00153765484           
       0.123268               0.023108253             0.00163846793           
       0.123947              0.0214028583             0.00158704768           
       0.124626              0.0216967023             0.00157836766           
       0.125305              0.0224541101             0.00161356043           
       0.125985              0.0199821435             0.00151034202           
       0.126664              0.0234947636             0.00162212067           
       0.127343              0.0214246412             0.00156696567           
       0.128022              0.0207523828              0.0015303572           
       0.128701              0.0228652947             0.00159800814           
       0.129380              0.0252382161             0.00165785381           
       0.130059              0.0182483213             0.00141297923           
       0.130739              0.0188441408             0.00144595867           
       0.131418              0.0182916003             0.00142061351           
       0.132097              0.0225583074              0.0015573907           
       0.132776              0.0209787659             0.00149509624           
       0.133455              0.0204191993              0.0014864818           
       0.134134              0.0223346801             0.00154969012           
       0.134814              0.0240017016              0.0015899298           
       0.135493              0.0194019414             0.00143526981           
       0.136172              0.0217471321             0.00150806821           
       0.136851              0.0228393153              0.0015544617           
       0.137530               0.017508702             0.00132868734           
       0.138209              0.0180359504             0.00136437729           
       0.138889              0.0217595191             0.00150521932           
       0.139568              0.0203586436             0.00145533113           
       0.140247              0.0216570058             0.00149905337           
       0.140926               0.017754745             0.00131848859           
       0.141605               0.019531662             0.00141802701           
       0.142284              0.0197770109             0.00140326075           
       0.142964              0.0202231383             0.00142442715           
       0.143643               0.020270025             0.00142427593           
       0.144322              0.0175027927             0.00129579558           
       0.145001              0.0213170988              0.0014593888           
       0.145680              0.0172594824             0.00128210209           
       0.146359              0.0188325125             0.00134415266           
       0.147039              0.0201439977             0.00140161311           
       0.147718              0.0164577125             0.00124598804           
       0.148397              0.0181404953             0.00132846606           
       0.149076               0.019996244             0.00135149414           
       0.149755              0.0156859329             0.00121548516           
       0.150434              0.0175598332             0.00128656549           
       0.151114              0.0183983226             0.00130964029           
       0.151793              0.0174697821             0.00127617631           
       0.152472              0.0198042577             0.00133476935           
       0.153151              0.0204844529             0.00137062188           
       0.153830              0.0176498673              0.0012629915           
       0.154509              0.0192041804             0.00131193341           
       0.155188              0.0215172229             0.00138818217           
       0.155868              0.0184768948             0.00127722179           
       0.156547              0.0194330834             0.00131826726           
       0.157226              0.0193401763             0.00128299126           
       0.157905              0.0182671279             0.00125736472           
       0.158584              0.0181148237             0.00124983729           
       0.159263              0.0191173601             0.00128868098           
       0.159943              0.0187946387             0.00127871051           
       0.160622              0.0187462483             0.00125241781           
       0.161301              0.0146174544             0.00112072285           
       0.161980              0.0179464513             0.00122068855           
       0.162659              0.0179057735             0.00123281891           
       0.163338              0.0160460432             0.00115753054           
       0.164018              0.0176621378             0.00120804938           
       0.164697              0.0174581913             0.00121647634           
       0.165376              0.0167860508             0.00116676748           
       0.166055              0.0187403847             0.00124094942           
       0.166734              0.0180704827             0.00121310921           
       0.167413              0.0163920923             0.00115620856           
       0.168093              0.0179391664             0.00122098109           
       0.168772              0.0169006333             0.00115045325           
       0.169451               0.016565153             0.00115993295           
       0.170130              0.0171510745             0.00116477371           
       0.170809              0.0180547504             0.00120932719           
       0.171488              0.0157275789             0.00111841191           
       0.172168               0.019082315             0.00122009614           
       0.172847              0.0169653364             0.00116554084           
       0.173526              0.0178571698             0.00117297211           
       0.174205              0.0174036637             0.00116331486           
       0.174884              0.0171261713             0.00114798959           
       0.175563              0.0161253753             0.00111869849           
       0.176243              0.0185289057             0.00121117725           
       0.176922              0.0182433297             0.00117048836           
       0.177601              0.0171857548             0.00114853998           
       0.178280              0.0162685824             0.00110499806           
       0.178959              0.0155306507             0.00108833021           
       0.179638              0.0172778182             0.00114461088           
       0.180317              0.0167817182             0.00111984066           
       0.180997              0.0173645486             0.00114530367           
       0.181676              0.0153807739             0.00106638928           
       0.182355              0.0160690858             0.00109653575           
       0.183034              0.0168398749             0.00110451094           
       0.183713              0.0171322869              0.0011276267           
       0.184392              0.0194715269             0.00120178365           
       0.185072              0.0180883412             0.00114511143           
       0.185751              0.0157744047             0.00107233722           
       0.186430              0.0166983397             0.00109556717           
       0.187109              0.0175975184             0.00113720296           
       0.187788              0.0158174765             0.00107549611           
       0.188467              0.0145258656             0.00101845328           
       0.189147              0.0159228219              0.0010771001           
       0.189826               0.016275369               0.001069702           
       0.190505              0.0169606483             0.00110996551           
       0.191184              0.0173056344             0.00110503823           
       0.191863              0.0174051032             0.00111054408           
       0.192542              0.0168630185             0.00110342157           
       0.193222              0.0166488557             0.00107182203           
       0.193901              0.0188650493             0.00115622377           
       0.194580              0.0161553517             0.00105125241           
       0.195259              0.0143814694             0.00100325146           
       0.195938              0.0163581187              0.0010725323           
       0.196617              0.0146404501             0.00100049762           
       0.197297              0.0170460979             0.00108397934           
       0.197976              0.0149305938            0.000998905381           
       0.198655              0.0160071827             0.00104558962           
       0.199334              0.0159020652             0.00103296041           
       0.200013              0.0164954359             0.00105147255           
       0.200692              0.0139310241            0.000972102393           
       0.201371              0.0169173461             0.00105917509           
       0.202051              0.0180225309             0.00109662459           
       0.202730              0.0147593221            0.000982480198           
       0.203409              0.0154461841             0.00101182826           
       0.204088              0.0138346939            0.000956533858           
       0.204767              0.0141999601            0.000963985539           
       0.205446              0.0143491154            0.000970928717           
       0.206126              0.0152165496            0.000986261408           
       0.206805              0.0167031809             0.00105226017           
       0.207484              0.0147877467            0.000972290307           
       0.208163              0.0136546721            0.000939912653           
       0.208842              0.0158332766             0.00100937792           
       0.209521               0.016074507             0.00100858588           
       0.210201              0.0162625844             0.00102578981           
       0.210880              0.0132897663            0.000909107767           
       0.211559              0.0152968963            0.000989765752           
       0.212238              0.0169317512             0.00103601524           
       0.212917              0.0147030493            0.000961838862           
       0.213596              0.0158976919             0.00100606495           
       0.214276              0.0153861194              0.0009691256           
       0.214955              0.0162107132             0.00101567505           
       0.215634              0.0141008235            0.000940485687           
       0.216313              0.0153610344            0.000979551494           
       0.216992              0.0154160161            0.000981057225           
       0.217671               0.014883087            0.000957421215           
       0.218351              0.0141350043            0.000942174481           
       0.219030              0.0154275727            0.000968773532           
       0.219709              0.0177185785             0.00104469258           
       0.220388              0.0153383166            0.000970743827           
       0.221067              0.0147525155            0.000952780816           
       0.221746              0.0142974066            0.000937008452           
       0.222426              0.0168296348              0.0010014119           
       0.223105              0.0157116051            0.000980759103           
       0.223784              0.0142036612            0.000923257557           
       0.224463              0.0139388806            0.000921895172           
       0.225142              0.0143093565            0.000919286912           
       0.225821              0.0149681647            0.000943998149           
       0.226500              0.0137902615            0.000911854981           
       0.227180               0.015916803            0.000964549481           
       0.227859              0.0140757775            0.000911122442           
       0.228538               0.014917635            0.000928554791           
       0.229217              0.0142887922            0.000915966172           
       0.229896              0.0157276984            0.000960517166           
       0.230575              0.0155251512            0.000939099788           
       0.231255              0.0149478929             0.00093527164           
       0.231934              0.0136434044            0.000887425466           
       0.232613              0.0149008233            0.000930839888           
       0.233292              0.0141573236            0.000898553507           
       0.233971              0.0136381064            0.000881510881           
       0.234650               0.012668251            0.000859582388           
       0.235330              0.0153318115            0.000937382537           
       0.236009              0.0144426109            0.000907832734           
       0.236688              0.0138475228            0.000885751759           
       0.237367              0.0144484752             0.00090608159           
       0.238046              0.0155125906            0.000945466739           
       0.238725              0.0153139914            0.000924902276           
       0.239405              0.0136764649            0.000879474615           
       0.240084              0.0128482933            0.000847002792           
       0.240763              0.0138873489            0.000889017908           
       0.241442              0.0139352177            0.000878000542           
       0.242121              0.0131592681            0.000854816259           
       0.242800              0.0134130191             0.00086710435           
       0.243480              0.0146439681            0.000901777123           
       0.244159              0.0146256105            0.000901647784           
       0.244838              0.0141431168            0.000872061011           
       0.245517               0.013956339            0.000878744667           
       0.246196              0.0140741294            0.000882870645           
       0.246875              0.0125974941             0.00082362936           
       0.247554              0.0159841311            0.000937186033           
       0.248234              0.0156488704            0.000913244554           
       0.248913              0.0129703074            0.000840746637           
       0.249592              0.0136678233             0.00085485629           
       0.250271              0.0145003143            0.000877948907           
       0.250950               0.012647212            0.000824954138           
       0.251629              0.0137998471            0.000854402532           
       0.252309              0.0140169487            0.000862844766           
       0.252988              0.0136234614            0.000835994777           
       0.253667              0.0142070121            0.000863686285           
       0.254346              0.0118555479            0.000788816674           
       0.255025               0.014249263            0.000862897244           
       0.255704              0.0131931673            0.000826501681           
       0.256384               0.012075721            0.000787989954           
       0.257063              0.0136384949            0.000842202339           
       0.257742              0.0137233675            0.000838965198           
       0.258421              0.0135248256            0.000831271082           
       0.259100              0.0135061922            0.000832146867           
       0.259779              0.0128094429            0.000809711549           
       0.260459              0.0134890161            0.000832544341           
       0.261138              0.0126141483            0.000789359873           
       0.261817              0.0129344307            0.000815453181           
       0.262496              0.0126266506            0.000797791217           
       0.263175              0.0120686578            0.000781639438           
       0.263854              0.0120253461            0.000776610703           
       0.264534              0.0126354071            0.000789267194           
       0.265213              0.0128577753            0.000808728886           
       0.265892              0.0127648478            0.000795477373           
       0.266571               0.011161985            0.000742167583           
       0.267250              0.0101134123            0.000707637935           
       0.267929               0.013458122            0.000815471774           
       0.268609              0.0139587643            0.000835048299           
       0.269288              0.0124194523            0.000774576181           
       0.269967              0.0125054246             0.00078562685           
       0.270646              0.0112700633            0.000742589554           
       0.271325               0.011591184            0.000754352443           
       0.272004              0.0110393743            0.000728839169           
       0.272683              0.0134705722            0.000806099746           
       0.273363              0.0113636512            0.000745102107           
       0.274042              0.0142379648            0.000829107601           
       0.274721              0.0121213944            0.000764549609           
       0.275400              0.0127300196            0.000778321231           
       0.276079              0.0113448765            0.000738929959           
       0.276758              0.0118429371            0.000764503417           
       0.277438              0.0109487896            0.000726825531           
       0.278117              0.0121961881            0.000781061624           
       0.278796              0.0121506918            0.000771690207           
       0.279475              0.0102421758            0.000720201953           
       0.280154              0.0125026348            0.000784271758           
       0.280833              0.0108628348            0.000735479316           
       0.281513              0.0116630621            0.000774044229           
       0.282192             0.00962667812            0.000691233168           
       0.282871              0.0121771564            0.000782858894           
       0.283550              0.0103975876            0.000727273888           
       0.284229              0.0123631485            0.000804689817           
       0.284908              0.0102499613            0.000740426408           
       0.285588              0.0122295854            0.000799302222           
       0.286267              0.0101855638            0.000741133461           
       0.286946             0.00972287309            0.000719395512           
       0.287625              0.0112129971            0.000785712441           
       0.288304              0.0102658047            0.000741732271           
       0.288983              0.0119679358             0.00081100871           
       0.289663             0.00989998398            0.000741937955           
       0.290342              0.0100637753            0.000744068329           
       0.291021             0.00988245594            0.000741307291           
       0.291700              0.0120667418            0.000808444136           
       0.292379             0.00964003898            0.000739138629           
       0.293058              0.0100153459            0.000750543565           
       0.293738              0.0100585628            0.000745844936           
       0.294417              0.0104107388            0.000767609141           
       0.295096              0.0116276127            0.000802313081           
       0.295775             0.00993172898            0.000752823923           
       0.296454             0.00972272487             0.00073522622           
       0.297133             0.00958837163            0.000733582931           
       0.297812              0.0109969682            0.000789561621           
       0.298492              0.0112227056            0.000799165301           
       0.299171             0.00904008803            0.000715898979           
       0.299850             0.00990929851            0.000744408076           
       0.300529              0.0111025501             0.00079683012           
       0.301208              0.0112728618            0.000804872297           
       0.301887              0.0103292735            0.000769535016           
       0.302567             0.00896156573            0.000713189402           
       0.303246             0.00990652872            0.000754744391           
       0.303925              0.0103515336            0.000781415882           
       0.304604             0.00994552861            0.000749399556           
       0.305283             0.00985953817            0.000757219143           
       0.305962              0.0096136357            0.000743199713           
       0.306642             0.00911701365            0.000733578614           
       0.307321             0.00988187578            0.000761291618           
       0.308000             0.00929179071            0.000729461727           
       0.308679             0.00893823299            0.000730942404           
       0.309358             0.00822336978            0.000691619753           
       0.310037             0.00923770267            0.000734667834           
       0.310717             0.00864628706             0.00071007761           
       0.311396             0.00957660384            0.000752314946           
       0.312075             0.00870160948             0.00072621707           
       0.312754             0.00745588544            0.000658779221           
       0.313433              0.0077325615            0.000676725796           
       0.314112             0.00908329284            0.000733285331           
       0.314792              0.0072976079            0.000661908093           
       0.315471             0.00856385372            0.000708170471           
       0.316150             0.00955023477            0.000754763837           
       0.316829             0.00807938369            0.000698797979           
       0.317508             0.00848957977            0.000708279646           
       0.318187             0.00950196498            0.000759206595           
       0.318866               0.007636692            0.000671453149           
       0.319546             0.00825643083            0.000708632215           
       0.320225             0.00740079872             0.00067092273           
       0.320904             0.00787019092            0.000681174362           
       0.321583             0.00817709262            0.000709628023           
       0.322262             0.00802681368              0.0006924212           
       0.322941             0.00837705483            0.000716428959           
       0.323621              0.0101996717            0.000785709554           
       0.324300             0.00809836909            0.000700661052           
       0.324979             0.00770534972            0.000684683426           
       0.325658             0.00772884329            0.000686970452           
       0.326337             0.00811767991            0.000704958042           
       0.327016             0.00739954799            0.000668781018           
       0.327696             0.00800496148            0.000703338553           
       0.328375             0.00768150633            0.000683168305           
       0.329054             0.00746966927            0.000677336257           
       0.329733             0.00813707147            0.000709530128           
       0.330412             0.00721207571            0.000662512143           
       0.331091             0.00579356226            0.000604566129           
       0.331771             0.00684691616            0.000640010039           
       0.332450             0.00682356561            0.000651322492           
       0.333129             0.00715925067            0.000665429543           
       0.333808             0.00754736182            0.000684131376           
       0.334487             0.00857048529            0.000732485265           
       0.335166             0.00720008148            0.000661548814           
       0.335846             0.00715173979            0.000670910674           
       0.336525             0.00657742978            0.000637056335           
       0.337204             0.00723607673            0.000669943816           
       0.337883             0.00682527994            0.000651511867           
       0.338562              0.0073468128             0.00067969639           
       0.339241             0.00649259575            0.000640158764           
       0.339921             0.00692726083            0.000650151319           
       0.340600             0.00784466927            0.000705003252           
       0.341279             0.00693012385            0.000655539187           
       0.341958             0.00707594735            0.000671745527           
       0.342637             0.00766557731            0.000689296101           
       0.343316             0.00584718127            0.000603757079           
       0.343995             0.00572620264             0.00060726175           
       0.344675              0.0071646327            0.000666782111           
       0.345354             0.00632474194            0.000630614104           
       0.346033             0.00718727752            0.000670487822           
       0.346712             0.00708563437            0.000669977785           
       0.347391             0.00666115929            0.000653622077           
       0.348070             0.00647432887            0.000635239284           
       0.348750              0.0068613208            0.000663398155           
       0.349429              0.0067923057            0.000651532138           
       0.350108             0.00542224391            0.000589130662           
       0.350787             0.00708226514            0.000661860761           
       0.351466             0.00691654403            0.000666120113           
       0.352145             0.00731919352            0.000685803709           
       0.352825             0.00742412524            0.000687573673           
       0.353504             0.00578328154            0.000606704537           
       0.354183             0.00606941261             0.00061437114           
       0.354862             0.00573372683            0.000611015676           
       0.355541             0.00552152931             0.00059174997           
       0.356220             0.00502287344            0.000565463056           
       0.356900             0.00505154241            0.000572460816           
       0.357579             0.00486647393            0.000554986949           
       0.358258              0.0057925477            0.000613873894           
       0.358937              0.0056933011            0.000597150507           
       0.359616             0.00552249646            0.000596337494           
       0.360295             0.00547212182            0.000594105972           
       0.360975             0.00619537864            0.000629446191           
       0.361654             0.00581250703            0.000612829525           
       0.362333             0.00492737704            0.000561373507           
       0.363012             0.00557550884            0.000604837065           
       0.363691             0.00586201921            0.000607947218           
       0.364370             0.00477819342            0.000555684953           
       0.365050             0.00580226589            0.000609067496           
       0.365729             0.00514509533            0.000579008197           
       0.366408             0.00544127287            0.000596758761           
       0.367087             0.00487923621            0.000556035418           
       0.367766             0.00521580925            0.000586871891           
       0.368445             0.00535292673            0.000583980202           
       0.369124             0.00369216346            0.000488811363           
       0.369804             0.00444828572            0.000535675394           
       0.370483             0.00482354127            0.000560253305           
       0.371162             0.00552906977            0.000603306631           
       0.371841             0.00589709137            0.000612198194           
       0.372520             0.00602642087            0.000631279977           
       0.373199             0.00445126812            0.000536061038           
       0.373879             0.00549533176            0.000602516074           
       0.374558             0.00575920209            0.000607811302           
       0.375237             0.00456212284            0.000541854201           
       0.375916             0.00488613044            0.000571508547           
       0.376595             0.00372552353            0.000489284806           
       0.377274             0.00450613785            0.000546722559           
       0.377954              0.0039166547            0.000501702085           
       0.378633             0.00508229362            0.000578724733           
       0.379312             0.00474353952             0.00055896392           
       0.379991             0.00574561751            0.000611994063           
       0.380670             0.00400713925            0.000520121809           
       0.381349             0.00557332602            0.000604594407           
       0.382029              0.0037222831            0.000501175839           
       0.382708             0.00452726644            0.000540647904           
       0.383387             0.00434536349            0.000541678743           
       0.384066               0.004840425            0.000566457406           
       0.384745             0.00367868796            0.000495765025           
       0.385424             0.00430928648            0.000538399492           
       0.386104             0.00408190065            0.000518211523           
       0.386783             0.00399781841            0.000523939293           
       0.387462             0.00496184535            0.000569181131           
       0.388141             0.00499995125            0.000580488169           
       0.388820             0.00413032251            0.000523783349           
       0.389499             0.00390354661            0.000512067724           
       0.390178             0.00488857352            0.000575327076           
       0.390858             0.00440271535            0.000541571213           
       0.391537             0.00321365064            0.000467419492           
       0.392216              0.0037225371            0.000496762811           
       0.392895             0.00427213591             0.00053396491           
       0.393574             0.00440146142            0.000540643255           
       0.394253             0.00355476195            0.000488053007           
       0.394933              0.0039999887            0.000523631492           
       0.395612              0.0050992919            0.000574049475           
       0.396291             0.00479039199            0.000567718151           
       0.396970             0.00390533186            0.000508055626           
       0.397649             0.00353686386            0.000484983027           
       0.398328             0.00297856086            0.000443105811           
       0.399008             0.00459550452             0.00054919419           
       0.399687             0.00483319743            0.000565408436           
       0.400366             0.00407356999            0.000517092615           
       0.401045             0.00483835984            0.000562481088           
       0.401724             0.00427339981            0.000529504826           
       0.402403              0.0031989608            0.000461699515           
       0.403083             0.00361674572            0.000483844704           
       0.403762             0.00464510623            0.000551037483           
       0.404441             0.00590215104            0.000625094588           
       0.405120             0.00361534489            0.000487628347           
       0.405799             0.00371866511            0.000492398581           
       0.406478             0.00450049541             0.00054170685           
       0.407158             0.00407664453            0.000514599965           
       0.407837             0.00381931541            0.000502490114           
       0.408516             0.00419433218            0.000522001233           
       0.409195             0.00429588538            0.000534275599           
       0.409874              0.0033576781            0.000478915965           
       0.410553             0.00302413013            0.000459394666           
       0.411233             0.00401128844            0.000526346185           
       0.411912              0.0039213413            0.000527785245           
       0.412591             0.00398839602            0.000535801438           
       0.413270             0.00366967492            0.000511505579           
       0.413949             0.00368060527            0.000517861788           
       0.414628             0.00236994348            0.000414803857           
       0.415307              0.0030182889            0.000473323873           
       0.415987             0.00252541021            0.000429388409           
       0.416666             0.00412833966            0.000545696551           
       0.417345             0.00354290739             0.00051396779           
       0.418024             0.00280693548            0.000457491764           
       0.418703             0.00279761062            0.000455892154           
       0.419382             0.00254997639              0.0004331149           
       0.420062             0.00299386065             0.00047061518           
       0.420741             0.00355482329            0.000515540305           
       0.421420             0.00268670589            0.000449891332           
       0.422099              0.0021628204            0.000403663126           
       0.422778             0.00317592989            0.000491801441           
       0.423457             0.00299559337            0.000480558076           
       0.424137             0.00235073878            0.000418765385           
       0.424816             0.00240056136            0.000432024016           
       0.425495             0.00331829076            0.000507455146           
       0.426174             0.00324156933            0.000501730081           
       0.426853             0.00342961805            0.000512943227           
       0.427532             0.00264102496            0.000453930196           
       0.428212             0.00252128353            0.000446448234           
       0.428891             0.00234480592            0.000429560945           
       0.429570             0.00298484291            0.000484985687           
       0.430249             0.00232675369            0.000425973593           
       0.430928             0.00212241861            0.000415735895           
       0.431607             0.00273887811            0.000464153137           
       0.432287             0.00207337567            0.000406802029           
       0.432966             0.00235507088            0.000437370477           
       0.433645             0.00227719545            0.000430527519           
       0.434324             0.00264605304            0.000461290191           
       0.435003              0.0012885499            0.000322453201           
       0.435682             0.00254859997              0.0004572085           
       0.436361             0.00171505017            0.000374559007           
       0.437041             0.00261754581            0.000462113874           
       0.437720             0.00165647859            0.000369389471           
       0.438399               0.002764418             0.00047968246           
       0.439078             0.00222847546            0.000443170126           
       0.439757             0.00193461183            0.000410373909           
       0.440436             0.00259757972             0.00048623489           
       0.441116             0.00239509593            0.000474533928           
       0.441795             0.00285974131            0.000519149103           
       0.442474             0.00270008857            0.000505856174           
       0.443153             0.00186241944            0.000429924644           
       0.443832             0.00353972646             0.00059370385           
       0.444511             0.00135181894            0.000365243927           
       0.445191             0.00278598955            0.000537094237           
       0.445870             0.00267507634            0.000526308884           
       0.446549             0.00242428657            0.000506314405           
       0.447228                0.00260864            0.000522245125           
       0.447907             0.00160007615            0.000413921396           
       0.448586             0.00237183469            0.000516078318           
       0.449266             0.00189445317             0.00045698518           
       0.449945             0.00197191108            0.000464332205           
       0.450624             0.00323488581            0.000604167267           
       0.451303             0.00222128549            0.000507134763           
       0.451982             0.00196827011            0.000474428141           
       0.452661             0.00216780694            0.000507171559           
       0.453341             0.00278483288            0.000576850742           
       0.454020             0.00279584063            0.000578870488           
       0.454699              0.0011383205            0.000372739994           
       0.455378             0.00236822332            0.000537920435           
       0.456057             0.00182732854            0.000480917826           
       0.456736             0.00192161527            0.000491631143           
       0.457416             0.00156022183            0.000443008106           
       0.458095             0.00225766755            0.000540615596           
       0.458774             0.00192020226            0.000505165857           
       0.459453             0.00154101532             0.00045482972           
       0.460132             0.00172461399            0.000470770779           
       0.460811             0.00201801092            0.000528242933           
       0.461490             0.00156291147            0.000460150118           
       0.462170             0.00274186766            0.000618985668           
       0.462849             0.00222951555            0.000561785209           
       0.463528             0.00136544481            0.000438625473           
       0.464207             0.00243522172            0.000596728901           
       0.464886             0.00138406739            0.000446366408           
       0.465565              0.0015972787            0.000484783691           
       0.466245             0.00100748328            0.000386208789           
       0.466924             0.00198891259            0.000555457232           
       0.467603            0.000862710556            0.000358067155           
       0.468282             0.00247557475            0.000620937972           
       0.468961             0.00141046342            0.000471774849           
       0.469640            0.000793388383            0.000355243292           
       0.470320             0.00111118595            0.000420703773           
       0.470999            0.000805217571            0.000361506989           
       0.471678             0.00231584447            0.000618969575           
       0.472357             0.00134122285            0.000472362939           
       0.473036             0.00118596845            0.000446986709           
       0.473715             0.00104166856            0.000422189104           
       0.474395            0.000561028808            0.000314121044           
       0.475074             0.00108834914            0.000437523334           
       0.475753             0.00105542903            0.000427137737           
       0.476432             0.00133158121            0.000497241258           
       0.477111            0.000578034146             0.00032365044           
       0.477790             0.00130397061            0.000488705924           
       0.478470             0.00136531352            0.000506682034           
       0.479149             0.00118886871            0.000477699961           
       0.479828             0.00101347884             0.00044001961           
       0.480507            0.000448381382            0.000295036554           
       0.481186            0.000681784705            0.000372012017           
       0.481865            0.000858267397            0.000412223825           
       0.482545            7.85700422e-05            0.000126189115           
       0.483224            0.000273031426            0.000236841156           
       0.483903             0.00113890151            0.000491339301           
       0.484582            0.000550221386            0.000347066566           
       0.485261            0.000912272173            0.000435573372           
       0.485940            0.000329039615            0.000272143986           
       0.486619            0.000550643783            0.000348181892           
       0.487299            0.000331287441             0.00027437347           
       0.487978            9.59945188e-05            0.000146189235           
       0.488657           -0.000321746724                         0           
       0.489336            0.000574219854            0.000365772228           
       0.490015           -8.65025422e-05                         0           
       0.490694            0.000618193844            0.000393081103           
       0.491374             0.00064892932            0.000397824624           
       0.492053            0.000190683046            0.000221565825           
       0.492732           -0.000321863703                         0           
       0.493411            0.000448280975             0.00033937889           
       0.494090           -0.000321903263                         0           
       0.494769            0.000210005654             0.00023821586           
       0.495449            -0.00032194246                         0           
       0.496128           -0.000321962256                         0           
       0.496807            0.000227542623            0.000254038413           
       0.497486           -0.000322001595                         0           
       0.498165            0.000244648501            0.000264365253           
       0.498844            0.000531667772            0.000390195045           
       0.499524           -0.000322061216                         0           
       0.500203           -3.27752845e-05                         0           
       0.500882            0.000280609764            0.000291576662           
       0.501561           -0.000322120933                         0           
       0.502240           -0.000322141013                         0           
       0.502919           -0.000322161003                         0           
       0.503599           -0.000322181074                         0           
       0.504278           -0.000322201427                         0           
       0.504957           -2.13893301e-06                         0           
       0.505636           -0.000322241525                         0           
       0.506315            1.63061087e-05            7.34141821e-05           
       0.506994           -0.000322281789                         0           
       0.507673           -0.000322301699                         0           
       0.508353           -0.000322322029                         0           
       0.509032            0.000416909022            0.000391046244           
       0.509711           -0.000322362523                         0           
       0.510390           -0.000322383092                         0           
       0.511069           -0.000322403593                         0           
       0.511748           -0.000322424012                         0           
       0.512428            6.97562256e-05            0.000163757421           
       0.513107            5.90483771e-05            0.000150430767           
       0.513786           -0.000322485136                         0           
       0.514465           -0.000322505793                         0           
       0.515144           -0.000322526437                         0           
       0.515823            8.16455738e-05            0.000181279593           
       0.516503            -0.00032256754                         0           
       0.517182           -0.000322588185                         0           
       0.517861           -0.000322608781                         0           
       0.518540            0.000128239051            0.000240853709           
       0.519219            0.000117438163            0.000227117689           
       0.519898            0.000145581915            0.000261585599           
       0.520578           -0.000322691809                         0           
       0.521257           -0.000322712463                         0           
       0.521936            0.000138287624            0.000253011345           
       0.522615           -0.000322754119                         0           
       0.523294           -0.000322775149                         0           
       0.523973           -0.000322795888                         0           
       0.524653           -0.000322816478                         0           
       0.525332           -0.000322837368                         0           
       0.526011            0.000192393725            0.000316595291           
       0.526690           -0.000322879857                         0           
       0.527369           -0.000322900907                         0           
       0.528048           -0.000322922106                         0           
       0.528728            0.000212246014            0.000336214748           
       0.529407            0.000779249468            0.000652929375           
       0.530086           -0.000322985324                         0           
       0.530765           -0.000323006321                         0           
       0.531444           -0.000323027545                         0           
       0.532123           -0.000323049144                         0           
       0.532802           -0.000323070568                         0           
       0.533482            0.000258312259            0.000389447334           
       0.534161             0.00139361218            0.000893827985           
       0.534840             0.00027118016            0.000401007346           
       0.535519           -0.000323156096                         0           
       0.536198           -0.000323177466                         0           
       0.536877           -0.000323198541                         0           
       0.537557            -0.00032321998                         0           
       0.538236           -0.000323241611                         0           
       0.538915           -0.000323263234                         0           
       0.539594           -0.000323284828                         0           
       0.540273            -0.00032330676                         0           
       0.540952           -0.000323328448                         0           
       0.541632           -0.000323349739                         0           
       0.542311            0.000308368452            0.000445608557           
       0.542990           -0.000323392952                         0           
       0.543669            -0.00032341486                         0           
       0.544348           -0.000323436743                         0           
       0.545027           -0.000323458578                         0           
       0.545707            -0.00032348048                         0           
       0.546386           -0.000323502442                         0           
       0.547065           -0.000323524142                         0           
       0.547744            -0.00032354594                         0           
       0.548423            0.000404406578            0.000539987893           
       0.549102           -0.000323590038                         0           
       0.549782           -0.000323611988                         0           
       0.550461           -0.000323634197                         0           
       0.551140           -0.000323656541                         0           
       0.551819            -0.00032367862                         0           
       0.552498           -0.000323700889                         0           
       0.553177           -0.000323722775                         0           
       0.553856           -0.000323744739                         0           
       0.554536           -0.000323766776                         0           
       0.555215           -0.000323789148                         0           
       0.555894           -0.000323811468                         0           
       0.556573           -0.000323833921                         0           
       0.557252           -0.000323856355                         0           
       0.557931           -0.000323878687                         0           
       0.558611           -0.000323901542                         0           
       0.559290            0.000684049395            0.000821219788           
       0.559969            0.000795485268            0.000953994631           
       0.560648           -0.000323967842                         0           
       0.561327            -0.00032399064                         0           
       0.562006           -0.000324013332                         0           
       0.562686           -0.000324036037                         0           
       0.563365           -0.000324058826                         0           
       0.564044             -0.0003240815                         0           
       0.564723            0.000825717321            0.000972191531           
       0.565402             0.00212585268              0.0016060924           
       0.566081           -0.000324148677                         0           
       0.566761           -0.000324171267                         0           
       0.567440           -0.000324194317                         0           
       0.568119           -0.000324217184                         0           
       0.568798           -0.000324240373                         0           
       0.569477           -0.000324263413                         0           
       0.570156           -0.000324286565                         0           
       0.570836            -0.00032430963                         0           
       0.571515           -0.000324332207                         0           
       0.572194           -0.000324355438                         0           
       0.572873           -0.000324378138                         0           
       0.573552           -0.000324400705                         0           
       0.574231           -0.000324423729                         0           
       0.574911           -0.000324447333                         0           
       0.575590           -0.000324470484                         0           
       0.576269           -0.000324493563                         0           
       0.576948           -0.000324517086                         0           
       0.577627           -0.000324539892                         0           
       0.578306           -0.000324563019                         0           
       0.578985           -0.000324586344                         0           
       0.579665           -0.000324609534                         0           
       0.580344           -0.000324633076                         0           
       0.581023           -0.000324656592                         0           
       0.581702            -0.00032467989                         0           
       0.582381           -0.000324702977                         0           
       0.583060           -0.000324726753                         0           
       0.583740           -0.000324750155                         0           
       0.584419           -0.000324773635                         0           
       0.585098           -0.000324797087                         0           
       0.585777           -0.000324820721                         0           
       0.586456            -0.00032484474                         0           
       0.587135           -0.000324868121                         0           
       0.587815           -0.000324891249                         0           
       0.588494           -0.000324915098                         0           
       0.589173           -0.000324939494                         0           
       0.589852           -0.000324962594                         0           
       0.590531           -0.000324986565                         0           
       0.591210           -0.000325009983                         0           
       0.591890           -0.000325033853                         0           
       0.592569           -0.000325056925                         0           
       0.593248           -0.000325082149                         0           
       0.593927           -0.000325106131                         0           
       0.594606           -0.000325130606                         0           
       0.595285           -0.000325153623                         0           
       0.595965           -0.000325175102                         0           
       0.596644           -0.000325197204                         0           
