################################################################################
# EDF_DataBlockID                     0.Image.Psd
# EDF_BinarySize                      2105344
# EDF_HeaderSize                      2560
# ByteOrder                           LowByteFirst
# DataType                            FloatValue
# Dim_1                               512
# Dim_2                               1028
# Image                               0
# HeaderID                            EH:000000:000000:000000
# Size                                2105344
# Center_1                            304.9000
# Center_2                            588.7000
# Comment                             Xenocs_Cell_Window - 20251028_20perc_iodine_1.23mg
# DDummy                              0.6
# Date                                2025-10-29T14:08:45
# Delta                               21.910000
# Dummy                               -1.5
# ExposureTime                        360
# Gamma                               15.360000
# Intensity1                          8.52795e-10
# PSize_1                             7.5e-05
# PSize_2                             7.5e-05
# Pressure                            0.0327969
# SampleDistance                      0.115750
# SampleEnvKind                       large
# SampleEnvPN                         ElectroChemical cell
# SampleEnvSN                         1141
# Thickness                           0
# Wavelength                          1.541891e-10
# Wavelength                          1.54189e-10
# aux                                 0
# aux_dial                            0.002375
# beamx                               588.434
# beamx_dial                          588.434
# beamz                               657.808
# beamz_dial                          657.808
# det0x                               0
# det0x_dial                          6.36945
# det0xvd                             0
# det0xvd_dial                        0
# det0y                               450.002
# det0y_dial                          481.635
# det0z                               0
# det0z_dial                          1.23302
# det0zvd                             0
# det0zvd_dial                        0
# mag                                 1.818
# mag_dial                            1.818
# om                                  0.2499
# om_dial                             -0.610199
# phi                                 -0.0120535
# phi_dial                            0
# ry                                  0.599993
# ry_dial                             0.599993
# s1bot                               0.8
# s1bot_dial                          -1.66094
# s1hl                                0.8
# s1hl_dial                           -0.608437
# s1hr                                0.8
# s1hr_dial                           0.970938
# s1top                               0.8
# s1top_dial                          -0.461562
# s2bot                               0.45
# s2bot_dial                          1.36109
# s2hl                                0.45
# s2hl_dial                           -0.83375
# s2hr                                0.45
# s2hr_dial                           -0.118594
# s2top                               0.45
# s2top_dial                          1.44734
# w2theta                             32
# w2theta_dial                        32
# waxsch                              19.2605
# waxsch_dial                         -32.7355
# waxsh                               137.085
# waxsh_dial                          -43.5338
# waxsth                              26.0607
# waxsth_dial                         -19.4086
# waxsz                               67.0407
# waxsz_dial                          -23.7954
# wind                                65.9854
# wind_dial                           66.0041
# wpsi                                124
# wpsi_dial                           124
# wstod                               115
# wstod_dial                          115
# x                                   0
# x_dial                              1.00969
# z                                   0
# z_dial                              13.3172
# CountCutoff                         6807993
# DetectorModel                       Dectris EIGER2 Si 500K, S/N E-01-0554
# ThresholdSetting                    4023.88989258
# Saturation                          0
# FlatField                           Corrected
# BackgroundReductionExtra            0.02
# BackgroundCorrectionConstant        0.0026712
# Detector                            0
# Monitor                             0
# Pil_Roi0                            0
# SumForIntensity1                    3.07006e+08
# TransmittedFlux                     852795
# det                                 0
# mon                                 0
# pilai0                              3.07006e+08
# pilai1                              767911
# pilct0                              5.3178e+08
# pilct1                              767911
# pilroi0                             0
# pilroi1                             0
# sec                                 1
# title                               20251028_20perc_iodine_1.23mg_1_00216.edf
# usaxs0                              0
# Operation                           Azimuthal average I(q)
# Error_model                         ErrorModel.poisson
# Geometrical_correction              True
# Transmission_correction             True
# Thickness_correction                False
# Binning mode                        Uniform
# Binning factor                      1.0
# Psi                                 0.0
# Omega                               0.2499
# MaskInvalidPixels                   True
# DetectorEdge                        3
# MaskFiles                           ['WAXS_corrected.edf']
################################################################################
    q(A⁻¹)                Intensity(a.u.)            Sigma_I(a.u.)            
       0.693100             0.00829790924             0.00608101516           
       0.695741              0.0196744441              0.0076410088           
       0.698381           -2.37881714e-05                         0           
       0.701021           -2.37703421e-05                         0           
       0.703662             0.00845755117             0.00500756144           
       0.706302             0.00510003649             0.00301056332           
       0.708942              0.0114348721              0.0058183231           
       0.711583              0.0087741275             0.00441336598           
       0.714223             0.00880189596             0.00510335768           
       0.716864             0.00505313449             0.00252999175           
       0.719504             0.00593110532             0.00295783776           
       0.722144             0.00248691748             0.00177371581           
       0.724785             0.00473297332             0.00195187401           
       0.727425             0.00739169795             0.00329987058           
       0.730065             0.00798839679             0.00242658681           
       0.732706             0.00564031827             0.00171224761           
       0.735346             0.00884406713             0.00279489109           
       0.737987              0.0056712783             0.00158152632           
       0.740627             0.00580646853             0.00238769289           
       0.743267             0.00569719945             0.00158414635           
       0.745908             0.00989229203             0.00226475787           
       0.748548             0.00606697324             0.00163483447           
       0.751189             0.00158774292             0.00112692332           
       0.753829             0.00336328078             0.00150768614           
       0.756469             0.00744033114             0.00180825161           
       0.759110             0.00876390349              0.0020681501           
       0.761750             0.00723198942             0.00166120342           
       0.764390             0.00659611472             0.00166051763           
       0.767031             0.00625003843              0.0013997159           
       0.769671             0.00486473018             0.00154043214           
       0.772312             0.00931947665             0.00162315617           
       0.774952              0.0066781627             0.00185546496           
       0.777592              0.0060108991             0.00128218641           
       0.780233             0.00473672796             0.00137323367           
       0.782873             0.00833737836             0.00174245916           
       0.785513             0.00873237832             0.00190641699           
       0.788154             0.00871702262             0.00159338081           
       0.790794             0.00744167522             0.00176006979           
       0.793435             0.00496633746             0.00129170358           
       0.796075             0.00589548321             0.00135572192           
       0.798715             0.00519385241             0.00150372514           
       0.801356              0.0060706924             0.00139919642           
       0.803996             0.00840941667             0.00167894019           
       0.806637             0.00571822216             0.00110178034           
       0.809277             0.00746315986             0.00136240809           
       0.811917             0.00757420578             0.00128307499           
       0.814558             0.00961501244             0.00150247853           
       0.817198             0.00871588901             0.00135904623           
       0.819838             0.00912079805             0.00140704187           
       0.822479              0.0069092812             0.00143805711           
       0.825119             0.00541236745              0.0010832958           
       0.827760             0.00689471393             0.00123852388           
       0.830400             0.00726993725             0.00119697972           
       0.833040             0.00430225218            0.000964723936           
       0.835681             0.00614989764             0.00131124594           
       0.838321             0.00747035849             0.00121298282           
       0.840961             0.00747810502             0.00132228692           
       0.843602             0.00818415252             0.00126854377           
       0.846242             0.00822835411             0.00127177507           
       0.848883             0.00761626809             0.00125213659           
       0.851523              0.0078134431             0.00125248719           
       0.854163             0.00681872298              0.0012442933           
       0.856804             0.00917954974             0.00129809914           
       0.859444             0.00631067376             0.00105457017           
       0.862085             0.00572405338             0.00104679464           
       0.864725             0.00844110136               0.001300928           
       0.867365             0.00635989633             0.00104711557           
       0.870006             0.00672252876             0.00102587352           
       0.872646             0.00687418323             0.00108783691           
       0.875286             0.00698582292             0.00105503054           
       0.877927             0.00652729122            0.000984076974           
       0.880567             0.00778484918             0.00111341213           
       0.883208             0.00657566335             0.00101365413           
       0.885848             0.00808697171             0.00116717562           
       0.888488             0.00856946258             0.00112692314           
       0.891129             0.00715136105             0.00105704637           
       0.893769             0.00885928534             0.00112595951           
       0.896410             0.00592279461            0.000858353001           
       0.899050             0.00872849482             0.00114592873           
       0.901690             0.00765684873             0.00116911358           
       0.904331             0.00589080566            0.000909127368           
       0.906971             0.00791524428             0.00112109892           
       0.909611             0.00774992059             0.00100984452           
       0.912252             0.00869887635             0.00110507978           
       0.914892             0.00770527681             0.00113655807           
       0.917533             0.00537341264            0.000897867105           
       0.920173             0.00734463983            0.000973930967           
       0.922813             0.00609576256             0.00093109237           
       0.925454             0.00840843927            0.000984706651           
       0.928094             0.00694860103            0.000955652609           
       0.930734             0.00730249532             0.00105474057           
       0.933375             0.00760831922             0.00106601633           
       0.936015             0.00749798768            0.000961125257           
       0.938656             0.00567685037            0.000897150754           
       0.941296             0.00699523766            0.000902553829           
       0.943936              0.0068159824             0.00087367992           
       0.946577             0.00825864146            0.000955348236           
       0.949217             0.00756009158            0.000840553761           
       0.951858             0.00674817428            0.000831302338           
       0.954498             0.00727401655            0.000999004336           
       0.957138             0.00839247638              0.0010165805           
       0.959779             0.00849466832              0.0010082223           
       0.962419             0.00812290604            0.000979355502           
       0.965059             0.00729026523            0.000975807222           
       0.967700             0.00779221598             0.00103325369           
       0.970340              0.0064125095            0.000829440401           
       0.972981             0.00692620623            0.000785385719           
       0.975621             0.00594662806            0.000774180036           
       0.978261             0.00800227554            0.000853330602           
       0.980902             0.00869714514             0.00106437221           
       0.983542             0.00744287266            0.000871958847           
       0.986182             0.00888141296              0.0009351624           
       0.988823             0.00641568082            0.000771769097           
       0.991463             0.00579701326             0.00078269058           
       0.994104             0.00643368654            0.000804362913           
       0.996744             0.00764370509             0.00089427444           
       0.999384               0.007699343            0.000802685993           
       1.002025             0.00928194625            0.000983680312           
       1.004665             0.00924659047            0.000897248348           
       1.007306             0.00661987864            0.000755297769           
       1.009946             0.00860366684            0.000878163898           
       1.012586             0.00816576412            0.000833230001           
       1.015227             0.00558860506            0.000740540904           
       1.017867             0.00780220475            0.000840931561           
       1.020507             0.00852372066            0.000851387255           
       1.023148              0.0101946349             0.00100468711           
       1.025788             0.00724541677            0.000776620167           
       1.028429             0.00868301643            0.000890706255           
       1.031069             0.00817331016            0.000813215307           
       1.033709             0.00883623983            0.000898823821           
       1.036350             0.00796010601            0.000766200973           
       1.038990             0.00848352027             0.00080552615           
       1.041630             0.00874292197             0.00085292022           
       1.044271             0.00859512952            0.000795331803           
       1.046911             0.00806183218            0.000810216151           
       1.049552             0.00881098659            0.000889907357           
       1.052192             0.00885836713            0.000814780142           
       1.054832             0.00755516303            0.000759308689           
       1.057473             0.00712194209            0.000726740864           
       1.060113             0.00783364162            0.000743340735           
       1.062754             0.00801666248            0.000767752297           
       1.065394             0.00880016608            0.000850454229           
       1.068034             0.00754817774            0.000716642428           
       1.070675             0.00883211594            0.000808628979           
       1.073315             0.00907036133            0.000831208664           
       1.075955             0.00835318683            0.000753047133           
       1.078596             0.00907193967            0.000834062014           
       1.081236             0.00744312146            0.000723426147           
       1.083877             0.00939796811            0.000805601297           
       1.086517                0.00967739            0.000876588206           
       1.089157             0.00795985679            0.000824905364           
       1.091798             0.00909834811            0.000773200178           
       1.094438             0.00933345817            0.000780598988           
       1.097078             0.00973058615            0.000764438084           
       1.099719             0.00836916378            0.000766834712           
       1.102359             0.00776877527            0.000691911164           
       1.105000             0.00910306933            0.000837501287           
       1.107640              0.0073796086            0.000721007827           
       1.110280             0.00813827319            0.000690853591           
       1.112921             0.00872540986            0.000768430357           
       1.115561             0.00850452307            0.000721025196           
       1.118202             0.00963372518            0.000768124497           
       1.120842             0.00926714461            0.000791795175           
       1.123482             0.00789550448            0.000727660557           
       1.126123             0.00788475856            0.000697473271           
       1.128763             0.00999974922            0.000790852373           
       1.131403             0.00753610534            0.000661553043           
       1.134044             0.00853775151            0.000724568333           
       1.136684             0.00831504407            0.000762373361           
       1.139325             0.00965397845             0.00075673182           
       1.141965             0.00966294992            0.000762088345           
       1.144605             0.00813219546             0.00066661703           
       1.147246             0.00867628665            0.000704677797           
       1.149886             0.00784841208            0.000667836384           
       1.152527             0.00917161699            0.000732440184           
       1.155167              0.0104879994            0.000744981694           
       1.157807             0.00925686636             0.00075040934           
       1.160448             0.00969604506            0.000749975679           
       1.163088              0.0101409281            0.000731593941           
       1.165728             0.00811573083            0.000671964953           
       1.168369             0.00951285315            0.000734229869           
       1.171009             0.00964619203            0.000717526598           
       1.173650             0.00865282014            0.000697408387           
       1.176290             0.00869726066             0.00068327234           
       1.178930              0.0108798921            0.000748999129           
       1.181571             0.00985507534            0.000726987475           
       1.184211             0.00982261363            0.000728362515           
       1.186851             0.00826675863             0.00065328231           
       1.189492             0.00903082119            0.000678211725           
       1.192132             0.00905905832            0.000671649762           
       1.194773             0.00964776095            0.000696158318           
       1.197413              0.0100165956            0.000679648727           
       1.200053             0.00941242587            0.000675572749           
       1.202694             0.00968480276            0.000651660073           
       1.205334             0.00783520507            0.000631674806           
       1.207975             0.00937271897            0.000659462241           
       1.210615             0.00959248498            0.000735978466           
       1.213255              0.0094035591            0.000652529423           
       1.215896              0.0110827255            0.000721233343           
       1.218536              0.0101299261            0.000663016393           
       1.221176              0.0104107025            0.000730756444           
       1.223817             0.00941804374            0.000652450631           
       1.226457             0.00949282259            0.000668232259           
       1.229098             0.00991876646            0.000683026303           
       1.231738             0.00944500533            0.000669794995           
       1.234378             0.00989918678             0.00064432771           
       1.237019              0.0102792944            0.000676601115           
       1.239659              0.0114614719            0.000708225461           
       1.242299               0.010294498            0.000662675334           
       1.244940              0.0107361448            0.000658172913           
       1.247580             0.00878090086            0.000613433965           
       1.250221                0.01108825            0.000685080697           
       1.252861              0.0100778518            0.000621775135           
       1.255501             0.00922647497            0.000645982352           
       1.258142             0.00952656775            0.000616808986           
       1.260782             0.00995125935            0.000644047956           
       1.263423              0.0104261939            0.000633452936           
       1.266063              0.0113531055            0.000677517491           
       1.268703              0.0110718194            0.000663519723           
       1.271344              0.0110065662            0.000683982365           
       1.273984              0.0107475241            0.000652772155           
       1.276624              0.0115213393            0.000663166212           
       1.279265              0.0101220052            0.000631912717           
       1.281905              0.0104490461            0.000644889551           
       1.284546               0.010108377            0.000613098621           
       1.287186              0.0104403314            0.000611311754           
       1.289826              0.0106977607            0.000652167145           
       1.292467              0.0112295837            0.000653464039           
       1.295107             0.00993996476             0.00060869062           
       1.297747              0.0108520595            0.000608603597           
       1.300388              0.0103757546            0.000648731627           
       1.303028              0.0118661962            0.000662307575           
       1.305669              0.0112306161            0.000659668139           
       1.308309              0.0107415816            0.000638792568           
       1.310949              0.0116656485             0.00066503348           
       1.313590              0.0109396559            0.000623876513           
       1.316230              0.0108002141            0.000661506203           
       1.318871              0.0109458953            0.000652218901           
       1.321511              0.0104084681            0.000624217352           
       1.324151              0.0115532744            0.000638153316           
       1.326792              0.0102396021            0.000604492258           
       1.329432              0.0105322062            0.000608742022           
       1.332072              0.0107801565            0.000606687588           
       1.334713              0.0118662298            0.000656947121           
       1.337353              0.0099550107            0.000577062087           
       1.339994              0.0114372331            0.000649087701           
       1.342634              0.0104588163             0.00059521563           
       1.345274              0.0108930023             0.00062864834           
       1.347915              0.0111427204            0.000618255372           
       1.350555              0.0118549361            0.000648876755           
       1.353195              0.0118201782            0.000651107104           
       1.355836              0.0109362656            0.000616523431           
       1.358476              0.0107366118            0.000593247365           
       1.361117              0.0115334043            0.000615710647           
       1.363757              0.0105999767            0.000608293137           
       1.366397              0.0121423673            0.000631345243           
       1.369038              0.0114192332            0.000618353297           
       1.371678              0.0114615774            0.000614037174           
       1.374319              0.0111373132            0.000600076811           
       1.376959              0.0113179999            0.000598841461           
       1.379599              0.0112684745            0.000640371016           
       1.382240              0.0115682116             0.00060980462           
       1.384880              0.0114652957            0.000643042031           
       1.387520               0.010969911            0.000597377459           
       1.390161              0.0119865234            0.000593072338           
       1.392801              0.0121583911            0.000622338146           
       1.395442              0.0107718748            0.000593779695           
       1.398082               0.010987872            0.000561596075           
       1.400722              0.0124881557            0.000627134847           
       1.403363              0.0115122586            0.000633817586           
       1.406003              0.0107233781            0.000572483995           
       1.408644              0.0116298394            0.000624547374           
       1.411284               0.010341399            0.000557670235           
       1.413924              0.0113975847            0.000583285521           
       1.416565              0.0105974171            0.000560228861           
       1.419205              0.0104898299            0.000581434013           
       1.421845              0.0106125801            0.000584482641           
       1.424486              0.0102183829            0.000551289176           
       1.427126               0.011451727            0.000606259532           
       1.429767              0.0110394713            0.000560055081           
       1.432407              0.0119948116            0.000610945188           
       1.435047              0.0112349598            0.000555307636           
       1.437688              0.0105309194            0.000545665412           
       1.440328              0.0100954823            0.000545277522           
       1.442968              0.0112516928             0.00058855384           
       1.445609              0.0108678167            0.000560077563           
       1.448249              0.0113456226            0.000586746266           
       1.450890              0.0112574958            0.000580648288           
       1.453530              0.0106226004            0.000590096258           
       1.456170              0.0107397476            0.000575851513           
       1.458811              0.0108125959            0.000552505822           
       1.461451              0.0109435342             0.00055729923           
       1.464092              0.0106545726            0.000553487424           
       1.466732              0.0115318557            0.000570875245           
       1.469372               0.010690113            0.000536782209           
       1.472013              0.0108888346            0.000584286515           
       1.474653              0.0110547672            0.000579639812           
       1.477293              0.0117454947            0.000610066833           
       1.479934              0.0112421065            0.000569520118           
       1.482574              0.0115812477            0.000559169834           
       1.485215              0.0112702085            0.000561883736           
       1.487855              0.0106940618            0.000554553478           
       1.490495              0.0105773899              0.0005494889           
       1.493136              0.0114310472            0.000563402384           
       1.495776              0.0117459935            0.000568510573           
       1.498416              0.0106169071             0.00055817974           
       1.501057              0.0103112298             0.00053796255           
       1.503697             0.00951897185            0.000505335093           
       1.506338              0.0114224374            0.000563674351           
       1.508978              0.0101043246             0.00052494089           
       1.511618              0.0100473557             0.00055748125           
       1.514259             0.00983187269            0.000532419198           
       1.516899               0.010149964            0.000526718967           
       1.519540              0.0102690837            0.000538344164           
       1.522180              0.0105630068            0.000550790369           
       1.524820              0.0102124841            0.000538536071           
       1.527461              0.0100945318            0.000538065043           
       1.530101             0.00983447187            0.000525777422           
       1.532741              0.0103625881            0.000536577939           
       1.535382              0.0112125116             0.00056713451           
       1.538022               0.010987514            0.000528883053           
       1.540663              0.0103555105            0.000552244042           
       1.543303             0.00998890657            0.000503609363           
       1.545943              0.0108701155            0.000556048236           
       1.548584             0.00986545056            0.000539238088           
       1.551224              0.0114436572            0.000536977174           
       1.553864             0.00998762393            0.000530091455           
       1.556505              0.0097632817            0.000506298207           
       1.559145              0.0103595202            0.000527917483           
       1.561786              0.0117449478            0.000562543504           
       1.564426              0.0115290087            0.000540012307           
       1.567066              0.0109441099            0.000551289355           
       1.569707              0.0104581421            0.000529229982           
       1.572347              0.0104572726            0.000546724752           
       1.574988             0.00967574723            0.000500567021           
       1.577628             0.00950145867            0.000517245529           
       1.580268              0.0103466032            0.000522969717           
       1.582909             0.00815951455            0.000492265475           
       1.585549             0.00925012338            0.000508915776           
       1.588189             0.00941713976            0.000502282502           
       1.590830              0.0101763743            0.000521482392           
       1.593470              0.0090683094            0.000511765292           
       1.596111             0.00954596089             0.00051263177           
       1.598751             0.00896929138            0.000481485834           
       1.601391              0.0092019439            0.000498450231           
       1.604032             0.00919016334            0.000508544577           
       1.606672               0.008370995              0.0004715646           
       1.609312             0.00924629963            0.000517354798           
       1.611953             0.00956269368            0.000514852846           
       1.614593             0.00949559647            0.000503254962           
       1.617234             0.00889270229            0.000504732737           
       1.619874              0.0086081702            0.000494630678           
       1.622514             0.00925474078            0.000505874233           
       1.625155              0.0100690201            0.000530776979           
       1.627795             0.00897520394            0.000488840424           
       1.630436             0.00937345755            0.000496959704           
       1.633076             0.00919313355            0.000498611129           
       1.635716             0.00878316727            0.000479783588           
       1.638357             0.00882741084            0.000482258296           
       1.640997             0.00899908142            0.000501675011           
       1.643637             0.00939557869            0.000498825092           
       1.646278             0.00910546608            0.000506492716           
       1.648918             0.00886310172            0.000501069648           
       1.651559             0.00959823455             0.00052548299           
       1.654199             0.00871512031            0.000486999496           
       1.656839             0.00963337489            0.000512191798           
       1.659480             0.00879598718            0.000507803278           
       1.662120              0.0094660366            0.000496149139           
       1.664761             0.00901130146            0.000502839696           
       1.667401             0.00840110337            0.000464049781           
       1.670041             0.00933162238            0.000496531744           
       1.672682             0.00932138555            0.000494219609           
       1.675322             0.00888321907            0.000479361535           
       1.677962             0.00903018118            0.000477978963           
       1.680603             0.00806457728            0.000453091313           
       1.683243              0.0103397568            0.000535260161           
       1.685884             0.00867836984            0.000493996829           
       1.688524             0.00924424532            0.000499992678           
       1.691164              0.0088125896             0.00048829047           
       1.693805             0.00885510649            0.000494843935           
       1.696445             0.00959759493            0.000518160742           
       1.699085             0.00863235687            0.000474948152           
       1.701726              0.0084813825            0.000453511036           
       1.704366             0.00915601861            0.000496399239           
       1.707007             0.00910820332            0.000484065031           
       1.709647             0.00905018272            0.000487969933           
       1.712287             0.00896813145            0.000489980978           
       1.714928             0.00950331037            0.000508455786           
       1.717568             0.00837217579            0.000449559975           
       1.720209             0.00852512373            0.000475164611           
       1.722849             0.00906078033            0.000487346703           
       1.725489             0.00827265935            0.000466060527           
       1.728130             0.00934441642            0.000526398453           
       1.730770             0.00946813653            0.000503235759           
       1.733410             0.00844813643            0.000467884638           
       1.736051             0.00825057637            0.000465599909           
       1.738691             0.00892488595            0.000474436302           
       1.741332               0.008178472            0.000467444004           
       1.743972              0.0084671761            0.000491161467           
       1.746612             0.00787698202            0.000454905791           
       1.749253             0.00886820248            0.000492212191           
       1.751893             0.00839575863            0.000475406354           
       1.754533             0.00899428381            0.000491600747           
       1.757174             0.00837835221            0.000470026603           
       1.759814             0.00799014218            0.000452050466           
       1.762455             0.00810530644            0.000463656787           
       1.765095             0.00770907285            0.000432566767           
       1.767735             0.00823827769            0.000460962671           
       1.770376             0.00891406868            0.000480760684           
       1.773016             0.00920244474            0.000485203313           
       1.775657             0.00901697258            0.000473378169           
       1.778297             0.00929803167             0.00047655992           
       1.780937             0.00813310195            0.000470444288           
       1.783578             0.00930877805            0.000490714802           
       1.786218             0.00838753557            0.000486113848           
       1.788858             0.00830531196            0.000459422293           
       1.791499              0.0086327954            0.000463131892           
       1.794139             0.00874573935            0.000462369679           
       1.796780             0.00917734184            0.000471357889           
       1.799420             0.00886490005            0.000460699294           
       1.802060             0.00909530282            0.000470417037           
       1.804701             0.00911701776             0.00045197217           
       1.807341             0.00868565783            0.000463553089           
       1.809981             0.00914078924            0.000477128673           
       1.812622             0.00861924889            0.000454975942           
       1.815262             0.00899556965            0.000474675541           
       1.817903             0.00900524897             0.00046789386           
       1.820543             0.00783770932             0.00044331167           
       1.823183             0.00860016246            0.000464118732           
       1.825824             0.00903942587            0.000454582818           
       1.828464             0.00812458295            0.000449300813           
       1.831105             0.00887204181            0.000456532845           
       1.833745             0.00877167435            0.000463638023           
       1.836385             0.00858625238            0.000471802404           
       1.839026             0.00916930016            0.000486017733           
       1.841666              0.0083063704            0.000460942712           
       1.844306             0.00838044149            0.000450360353           
       1.846947             0.00885189402            0.000466912097           
       1.849587             0.00825847607            0.000498002367           
       1.852228             0.00875606025            0.000463685255           
       1.854868             0.00746658121             0.00045231242           
       1.857508             0.00789332357            0.000460497237           
       1.860149             0.00787846161            0.000468422205           
       1.862789             0.00843776767            0.000467909566           
       1.865429             0.00903783915              0.0005054955           
       1.868070             0.00836343332            0.000479788667           
       1.870710             0.00813654582            0.000462325686           
       1.873351             0.00907548856             0.00049430949           
       1.875991              0.0082892875            0.000480123656           
       1.878631             0.00828551476            0.000470821047           
       1.881272             0.00867989197            0.000478667117           
       1.883912             0.00854172858            0.000494172631           
       1.886553             0.00895159131            0.000500233951           
       1.889193             0.00882522988            0.000495842052           
       1.891833             0.00830837091            0.000499644476           
       1.894474             0.00920802152            0.000521419754           
       1.897114             0.00856272928            0.000486566044           
       1.899754             0.00827596263            0.000480350541           
       1.902395             0.00811124631            0.000466248812           
       1.905035             0.00886051066            0.000516140584           
       1.907676             0.00728288116            0.000441034902           
       1.910316             0.00854643702            0.000490449985           
       1.912956             0.00823011481            0.000470699704           
       1.915597              0.0087561932            0.000488223973           
       1.918237              0.0078044048            0.000476024538           
       1.920878             0.00828497869            0.000488453973           
       1.923518             0.00882020109            0.000504198352           
       1.926158              0.0079410927            0.000472204165           
       1.928799             0.00817281963            0.000473499186           
       1.931439             0.00836507752            0.000491600752           
       1.934079             0.00868183925            0.000522094644           
       1.936720             0.00764951929            0.000454066519           
       1.939360             0.00873458094            0.000517643903           
       1.942001             0.00893028056            0.000479732747           
       1.944641             0.00754489234            0.000449639856           
       1.947281             0.00817787946            0.000463806635           
       1.949922             0.00802462323            0.000474561019           
       1.952562             0.00766494195            0.000478341875           
       1.955202             0.00946428234            0.000530882119           
       1.957843              0.0079338169            0.000473461015           
       1.960483             0.00782724047            0.000491666882           
       1.963124             0.00763845851            0.000475737166           
       1.965764             0.00744615109             0.00044295003           
       1.968404             0.00800580852            0.000454955083           
       1.971045             0.00808444267            0.000466123066           
       1.973685             0.00775378737            0.000478825285           
       1.976326             0.00850659203            0.000494638267           
       1.978966             0.00830715843            0.000493095266           
       1.981606             0.00743961152            0.000476369611           
       1.984247             0.00770755683            0.000481684405           
       1.986887             0.00746152005             0.00046825683           
       1.989527             0.00732954593            0.000459099214           
       1.992168             0.00815962033            0.000502604729           
       1.994808             0.00770262691            0.000486234071           
       1.997449              0.0077341919            0.000477223335           
       2.000089             0.00829790319            0.000492349073           
       2.002729             0.00760530643            0.000471636704           
       2.005370             0.00772749937            0.000470295182           
       2.008010             0.00706856345            0.000469427716           
       2.010650             0.00784221853            0.000498139775           
       2.013291             0.00787825284            0.000479034324           
       2.015931             0.00728223136            0.000457301924           
       2.018572             0.00791291247            0.000509868475           
       2.021212             0.00741406856            0.000484668151           
       2.023852             0.00716582732            0.000450970731           
       2.026493             0.00739891071            0.000478719914           
       2.029133             0.00734111107            0.000467250315           
       2.031774             0.00774164702            0.000503568592           
       2.034414             0.00783375921            0.000466101458           
       2.037054             0.00766142361             0.00047262951           
       2.039695             0.00746432545            0.000462987104           
       2.042335             0.00787551938            0.000494220225           
       2.044975             0.00747420449              0.0004756247           
       2.047616             0.00804902899              0.0004923495           
       2.050256             0.00714068416            0.000468125517           
       2.052897             0.00737452746              0.0004844992           
       2.055537             0.00802699271            0.000488525429           
       2.058177             0.00792348263            0.000475303586           
       2.060818             0.00765595867            0.000489439447           
       2.063458             0.00756910255            0.000507143066           
       2.066098             0.00785749631            0.000487434574           
       2.068739              0.0080710669            0.000501693473           
       2.071379              0.0078747482            0.000508478593           
       2.074020             0.00711898174            0.000472956039           
       2.076660             0.00813731763            0.000509740536           
       2.079300             0.00820416254            0.000524370776           
       2.081941             0.00883061903            0.000498114647           
       2.084581             0.00713126785            0.000472475579           
       2.087222             0.00677651906            0.000444179507           
       2.089862             0.00689787409            0.000488091837           
       2.092502             0.00770070932            0.000499911511           
       2.095143             0.00704813905            0.000493876053           
       2.097783             0.00758541208            0.000496045134           
       2.100423             0.00768095447            0.000480985968           
       2.103064             0.00745379201             0.00049165199           
       2.105704             0.00786437995            0.000502510212           
       2.108345             0.00776618536            0.000479754495           
       2.110985             0.00733859747            0.000498106705           
       2.113625             0.00715762324            0.000496219333           
       2.116266             0.00703733911            0.000499012951           
       2.118906              0.0072486804            0.000471983546           
       2.121546             0.00785656599            0.000481993924           
       2.124187             0.00728927801            0.000487336542           
       2.126827             0.00729406726            0.000492937437           
       2.129468             0.00818215838            0.000523418154           
       2.132108             0.00742529278             0.00048512148           
       2.134748             0.00650158001            0.000452183721           
       2.137389             0.00736435239            0.000502065608           
       2.140029              0.0073401877            0.000448741729           
       2.142670             0.00692484852            0.000465814044           
       2.145310             0.00744957272            0.000470248954           
       2.147950             0.00783312738            0.000496318113           
       2.150591             0.00709411556            0.000467552436           
       2.153231             0.00689043374            0.000474313226           
       2.155871             0.00702718575            0.000462742827           
       2.158512             0.00696558293            0.000480718297           
       2.161152             0.00741578153            0.000480466177           
       2.163793              0.0075306968            0.000481994824           
       2.166433             0.00722813716            0.000484913057           
       2.169073             0.00675321641            0.000458276823           
       2.171714             0.00745130717            0.000477782281           
       2.174354             0.00766258919            0.000506266833           
       2.176995             0.00726989071            0.000491048495           
       2.179635             0.00787344614            0.000540008779           
       2.182275             0.00717972041            0.000486874631           
       2.184916              0.0073746268            0.000476597909           
       2.187556             0.00721620711            0.000466725763           
       2.190196             0.00768888039            0.000503442093           
       2.192837             0.00697946903             0.00047704549           
       2.195477             0.00751837084            0.000472038118           
       2.198118             0.00789438023            0.000496091971           
       2.200758             0.00737989029            0.000492095958           
       2.203398             0.00784495031            0.000510610133           
       2.206039             0.00848035893            0.000502438857           
       2.208679             0.00719823861            0.000473675196           
       2.211319             0.00719183926             0.00047619459           
       2.213960              0.0072541196            0.000484659813           
       2.216600             0.00706725288            0.000494869973           
       2.219241             0.00780032824            0.000496886672           
       2.221881              0.0072510281            0.000480056905           
       2.224521             0.00814884244             0.00051514599           
       2.227162              0.0081292576            0.000504224546           
       2.229802             0.00847298926            0.000530888797           
       2.232443             0.00589341838             0.00043577688           
       2.235083              0.0082353605            0.000530331049           
       2.237723              0.0067233033            0.000459841102           
       2.240364             0.00679788739            0.000473775852           
       2.243004             0.00711760612            0.000480919341           
       2.245644             0.00756984288            0.000500926641           
       2.248285             0.00720257205            0.000478835093           
       2.250925             0.00644037575            0.000455541507           
       2.253566             0.00721989858            0.000515640124           
       2.256206             0.00807614913            0.000534455537           
       2.258846             0.00662946438            0.000460633434           
       2.261487             0.00703640559            0.000498095361           
       2.264127             0.00707355254            0.000482320744           
       2.266767             0.00755352995            0.000511695346           
       2.269408             0.00739456372            0.000508355564           
       2.272048             0.00742494912            0.000506358283           
       2.274689             0.00666278867            0.000485986529           
       2.277329             0.00739162697            0.000481965868           
       2.279969             0.00702591448            0.000500172711           
       2.282610             0.00727497837            0.000494805307           
       2.285250             0.00672359412            0.000455294958           
       2.287891             0.00716910841            0.000504058126           
       2.290531             0.00794357724              0.0005377189           
       2.293171             0.00576629387            0.000446267131           
       2.295812             0.00677885134            0.000481920427           
       2.298452             0.00692569093            0.000509389709           
       2.301092             0.00760468207            0.000495943608           
       2.303733             0.00731071124            0.000505883802           
       2.306373             0.00676515644            0.000494306217           
       2.309014             0.00873866038            0.000550837818           
       2.311654              0.0079862287            0.000549521128           
       2.314294              0.0074825312            0.000490050235           
       2.316935             0.00702806508            0.000476897207           
       2.319575             0.00661110395            0.000484628825           
       2.322215              0.0069822179            0.000519047403           
       2.324856             0.00656876035            0.000462865466           
       2.327496             0.00634981096            0.000483899315           
       2.330137             0.00794055561            0.000517819072           
       2.332777             0.00786244087            0.000531293943           
       2.335417             0.00787247672            0.000515763417           
       2.338058             0.00659288178            0.000486089025           
       2.340698             0.00805357729             0.00053302336           
       2.343339             0.00773730051            0.000533949245           
       2.345979             0.00723283088            0.000488412814           
       2.348619             0.00729943996            0.000508591878           
       2.351260             0.00791718145            0.000526589559           
       2.353900              0.0065502337            0.000477460451           
       2.356540              0.0076018437            0.000513631375           
       2.359181             0.00697890291            0.000485237081           
       2.361821             0.00699526282             0.00046927516           
       2.364462             0.00700153749            0.000491023174           
       2.367102             0.00624485851            0.000476558278           
       2.369742             0.00694016036            0.000528798326           
       2.372383             0.00727701786            0.000490308375           
       2.375023              0.0069006226            0.000501913617           
       2.377663             0.00693815701            0.000481206509           
       2.380304             0.00628238118             0.00046553593           
       2.382944               0.007354927            0.000479767472           
       2.385585             0.00654279278            0.000482604177           
       2.388225             0.00649098042             0.00047843077           
       2.390865             0.00680803854            0.000484943019           
       2.393506             0.00677302519            0.000474568934           
       2.396146              0.0078930993            0.000553931297           
       2.398787             0.00719736774             0.00048747335           
       2.401427             0.00747642638             0.00047955908           
       2.404067             0.00792452159            0.000504733758           
       2.406708             0.00659783669            0.000455027067           
       2.409348             0.00701679209             0.00049773311           
       2.411988             0.00721731831             0.00049458756           
       2.414629             0.00651941005            0.000484706294           
       2.417269              0.0076686067             0.00053183128           
       2.419910             0.00679649257            0.000501839291           
       2.422550             0.00671644261            0.000477293005           
       2.425190             0.00701069204            0.000514019385           
       2.427831             0.00733646909            0.000522870801           
       2.430471             0.00765098164            0.000508700861           
       2.433112             0.00608669891            0.000441822126           
       2.435752             0.00751044356            0.000519401443           
       2.438392             0.00768059158            0.000506975489           
       2.441033             0.00755911531            0.000533026272           
       2.443673              0.0080595576            0.000550810842           
       2.446313             0.00720214671            0.000521147437           
       2.448954             0.00720929584            0.000496451424           
       2.451594             0.00719408755            0.000533237954           
       2.454235             0.00734022953            0.000505369524           
       2.456875             0.00741825806            0.000531600852           
       2.459515             0.00680832824            0.000522461886           
       2.462156             0.00761585917             0.00052171087           
       2.464796             0.00805395207            0.000529584638           
       2.467436              0.0077020978            0.000535556431           
       2.470077             0.00829728082            0.000526858265           
       2.472717             0.00822563218            0.000526850934           
       2.475358             0.00711455682            0.000495087553           
       2.477998             0.00662164496            0.000469577224           
       2.480638              0.0072836952            0.000501244027           
       2.483279             0.00753775577            0.000532938255           
       2.485919             0.00699254858            0.000494684581           
       2.488560             0.00814435085            0.000532382389           
       2.491200             0.00738533356            0.000522043004           
       2.493840             0.00686515241            0.000532581079           
       2.496481             0.00722935601            0.000537585558           
       2.499121             0.00650356445            0.000495946051           
       2.501761              0.0076033298             0.00054334669           
       2.504402             0.00636287441            0.000489790055           
       2.507042             0.00683859349            0.000504008063           
       2.509683             0.00722878704            0.000510267632           
       2.512323             0.00778271505            0.000556061611           
       2.514963             0.00603439904            0.000483587944           
       2.517604             0.00771327923            0.000567323085           
       2.520244             0.00685128524            0.000501266956           
       2.522884             0.00821168817            0.000556629357           
       2.525525             0.00798485304            0.000555117489           
       2.528165              0.0085241588            0.000564617386           
       2.530806             0.00789668013             0.00055291121           
       2.533446             0.00744537993            0.000525419841           
       2.536086             0.00643910697            0.000484251813           
       2.538727             0.00602975191            0.000449556551           
       2.541367              0.0073080238            0.000499794715           
       2.544008             0.00745911907             0.00052147457           
       2.546648             0.00720173261            0.000521187526           
       2.549288             0.00794106745            0.000558438206           
       2.551929             0.00744299462            0.000532023777           
       2.554569             0.00744311004            0.000512564354           
       2.557209             0.00624640701            0.000473867125           
       2.559850             0.00722295581            0.000511200531           
       2.562490             0.00745646948            0.000536825927           
       2.565131             0.00610179354            0.000503511582           
       2.567771              0.0067508993            0.000510629845           
       2.570411             0.00604739542            0.000478062798           
       2.573052             0.00692696195             0.00051809255           
       2.575692             0.00623117019            0.000488408135           
       2.578332             0.00752856241            0.000539071444           
       2.580973             0.00712062082            0.000519274834           
       2.583613             0.00653222804            0.000485515334           
       2.586254              0.0072413315            0.000510478566           
       2.588894             0.00717723695            0.000527756363           
       2.591534             0.00768746243             0.00056541252           
       2.594175             0.00655965006            0.000512437102           
       2.596815             0.00607582176            0.000496084813           
       2.599456             0.00681127796            0.000498094039           
       2.602096             0.00713311192            0.000513604912           
       2.604736             0.00716061004             0.00052679608           
       2.607377             0.00679205638            0.000499539202           
       2.610017             0.00735357704            0.000510682499           
       2.612657             0.00674244639            0.000520127084           
       2.615298             0.00615520616            0.000485189952           
       2.617938             0.00611419366            0.000517297202           
       2.620579             0.00728364875            0.000542015472           
       2.623219               0.006280756            0.000502601327           
       2.625859             0.00645856834            0.000495538465           
       2.628500             0.00693486477            0.000510119871           
       2.631140             0.00692051813            0.000517443881           
       2.633780             0.00679785798            0.000512391939           
       2.636421             0.00713237214             0.00053775464           
       2.639061             0.00771329494            0.000526446739           
       2.641702             0.00638767724             0.00049016864           
       2.644342             0.00618181187            0.000484259912           
       2.646982             0.00732932499            0.000519410821           
       2.649623             0.00742660105            0.000547921943           
       2.652263              0.0082028647            0.000570067494           
       2.654904             0.00635689584            0.000502345766           
       2.657544             0.00738116697            0.000509853955           
       2.660184             0.00678739242            0.000517416105           
       2.662825             0.00680455047             0.00053008882           
       2.665465             0.00625183762            0.000491420433           
       2.668105             0.00729487829            0.000559518947           
       2.670746             0.00780117338            0.000534512007           
       2.673386             0.00857459436             0.00057751873           
       2.676027             0.00661661483            0.000499172387           
       2.678667             0.00929422137            0.000577268286           
       2.681307             0.00917269986            0.000563478673           
       2.683948              0.0136171106            0.000705397008           
       2.686588              0.0127302775            0.000670729663           
       2.689229              0.0102009299            0.000586696558           
       2.691869              0.0110734616            0.000646054996           
       2.694509             0.00920595523            0.000589387324           
       2.697150             0.00730650756            0.000516556111           
       2.699790              0.0085251979            0.000584956735           
       2.702430             0.00707573601            0.000509401948           
       2.705071             0.00701144411             0.00052397395           
       2.707711              0.0063936104            0.000485632917           
       2.710352             0.00765572276            0.000561499118           
       2.712992             0.00705084903            0.000548824471           
       2.715632             0.00709263366            0.000510706802           
       2.718273             0.00698959103            0.000525420087           
       2.720913             0.00714510876            0.000529721672           
       2.723553             0.00597263637            0.000487562762           
       2.726194             0.00748030216            0.000570374785           
       2.728834             0.00822566436            0.000598397747           
       2.731475             0.00778461171              0.0005372586           
       2.734115             0.00723098305            0.000533872019           
       2.736755             0.00773012513            0.000556534012           
       2.739396              0.0071999732            0.000533998867           
       2.742036             0.00671768321            0.000539821573           
       2.744677              0.0067673695             0.00052570918           
       2.747317             0.00740749387            0.000546088881           
       2.749957              0.0074164564            0.000550253821           
       2.752598             0.00720987295            0.000548424011           
       2.755238             0.00755417714            0.000571500097           
       2.757878             0.00807295479             0.00058563247           
       2.760519             0.00797876353            0.000576032745           
       2.763159             0.00757456998            0.000555643868           
       2.765800             0.00732440686            0.000520702373           
       2.768440             0.00754167055             0.00053226116           
       2.771080             0.00853097092            0.000570821449           
       2.773721             0.00783678225             0.00056121728           
       2.776361             0.00743180014            0.000554063734           
       2.779001             0.00796901811            0.000594165891           
       2.781642             0.00672141489            0.000541655644           
       2.784282             0.00764881499            0.000587318162           
       2.786923             0.00789542358             0.00060196495           
       2.789563              0.0068440691            0.000539783909           
       2.792203             0.00776210546            0.000549143343           
       2.794844             0.00703577404            0.000573001788           
       2.797484             0.00701319164            0.000539905343           
       2.800125             0.00731144066            0.000579656452           
       2.802765             0.00655823273            0.000539543246           
       2.805405             0.00754049176            0.000580497186           
       2.808046             0.00693009714            0.000566289233           
       2.810686             0.00588981906            0.000479711547           
       2.813326             0.00665467745            0.000529654752           
       2.815967             0.00579308587             0.00050823001           
       2.818607             0.00707163436            0.000535844005           
       2.821248             0.00633891384            0.000496792043           
       2.823888              0.0072591248            0.000551845234           
       2.826528             0.00668528198            0.000512876143           
       2.829169             0.00599333703            0.000508648509           
       2.831809             0.00733631706            0.000570413777           
       2.834449             0.00658332557            0.000543762939           
       2.837090             0.00657124452            0.000524706651           
       2.839730             0.00726412435            0.000548982855           
       2.842371             0.00649354848            0.000519797914           
       2.845011             0.00646941185            0.000522966561           
       2.847651             0.00669533458            0.000532673039           
       2.850292             0.00695560935            0.000548256274           
       2.852932             0.00803334718            0.000602042785           
       2.855573              0.0064466239            0.000523154075           
       2.858213             0.00683994154            0.000565886195           
       2.860853             0.00760606786            0.000555102547           
       2.863494             0.00619848255            0.000518832767           
       2.866134             0.00642590366            0.000549065952           
       2.868774             0.00651411956             0.00054331065           
       2.871415             0.00648957262            0.000550732908           
       2.874055             0.00670033445            0.000534912344           
       2.876696             0.00711192498            0.000566003291           
       2.879336             0.00782977482            0.000572387865           
       2.881976             0.00698308991            0.000557544844           
       2.884617             0.00642478524            0.000526938242           
       2.887257             0.00838528559            0.000605097295           
       2.889897             0.00645258025            0.000519878097           
       2.892538             0.00673733122             0.00058195927           
       2.895178             0.00676998973            0.000527034169           
       2.897819             0.00733434309            0.000559585222           
       2.900459             0.00574243075            0.000485514107           
       2.903099             0.00731419372            0.000542336451           
       2.905740               0.005833444            0.000496868368           
       2.908380             0.00748084247            0.000569063665           
       2.911021              0.0073692155            0.000573984774           
       2.913661             0.00718623127            0.000566643886           
       2.916301             0.00738435554            0.000574949731           
       2.918942              0.0067651303            0.000526390204           
       2.921582             0.00681458005            0.000552765015           
       2.924222             0.00673523433            0.000532396173           
       2.926863              0.0073558288            0.000579537813           
       2.929503             0.00780101222            0.000603888117           
       2.932144             0.00662341622            0.000534152904           
       2.934784             0.00700913946            0.000540476364           
       2.937424             0.00740436137            0.000561208503           
       2.940065             0.00782217478            0.000550236706           
       2.942705             0.00773264811            0.000546392491           
       2.945346             0.00753484429            0.000572396149           
       2.947986               0.007277008            0.000573573118           
       2.950626             0.00647753308            0.000538102537           
       2.953267             0.00727548861            0.000561069885           
       2.955907              0.0065663615            0.000552941064           
       2.958547             0.00738618585            0.000553633246           
       2.961188              0.0061939913            0.000528929628           
       2.963828             0.00666097121            0.000536540258           
       2.966469             0.00678785536            0.000531333624           
       2.969109             0.00737179624            0.000561920923           
       2.971749             0.00718568523            0.000551321428           
       2.974390             0.00683451932            0.000528370069           
       2.977030             0.00760725221             0.00056989779           
       2.979670             0.00791844153            0.000565559771           
       2.982311              0.0101003527            0.000662026152           
       2.984951             0.00774381227            0.000551321559           
       2.987592             0.00748271053            0.000552802035           
       2.990232             0.00667405658            0.000542955133           
       2.992872             0.00715277506            0.000529457534           
       2.995513             0.00954004021            0.000598210382           
       2.998153              0.0134904413            0.000723315886           
       3.000794              0.0122320756             0.00066713034           
       3.003434              0.0100756897             0.00060639169           
       3.006074               0.022095651            0.000885399253           
       3.008715               0.073708623             0.00156103741           
       3.011355               0.243472033             0.00273590645           
       3.013995               0.189840131             0.00242242711           
       3.016636                0.10395993             0.00175540559           
       3.019276               0.138513036             0.00199174777           
       3.021917               0.491130682             0.00360627415           
       3.024557                1.20431716             0.00555214273           
       3.027197                1.10682645             0.00518932796           
       3.029838               0.678003237             0.00411911802           
       3.032478               0.276622317             0.00263374253           
       3.035118              0.0741522184             0.00138190939           
       3.037759              0.0715002883             0.00135522279           
       3.040399              0.0913640145             0.00158024397           
       3.043040                0.31191261             0.00295558848           
       3.045680               0.381450848             0.00307518288           
       3.048320               0.139477092              0.0018999854           
       3.050961               0.148001225             0.00199166921           
       3.053601               0.106540769             0.00162750911           
       3.056242              0.0932801777             0.00161912454           
       3.058882              0.0979978048             0.00178021833           
       3.061522              0.0732383748             0.00150992795           
       3.064163              0.0895598329              0.0016486937           
       3.066803               0.164285193             0.00235083478           
       3.069443               0.105800917             0.00197381136           
       3.072084              0.0390415605              0.0011675203           
       3.074724              0.0438807933             0.00138230052           
       3.077365              0.0423273291             0.00140536539           
       3.080005               0.010832504            0.000714985493           
       3.082645              0.0144572091             0.00086772228           
       3.085286              0.0136828058            0.000850822739           
       3.087926              0.0108250595            0.000750942199           
       3.090566              0.0107564483            0.000733442964           
       3.093207              0.0124444043            0.000820926415           
       3.095847             0.00895152812            0.000667345804           
       3.098488              0.0073816114            0.000671958497           
       3.101128             0.00887414733             0.00074150523           
       3.103768              0.0101904171            0.000779647742           
       3.106409             0.00890365156            0.000775600233           
       3.109049             0.00945485898            0.000766998412           
       3.111690             0.00743927718            0.000668670399           
       3.114330             0.00782305394            0.000700288291           
       3.116970             0.00860423692            0.000740058899           
       3.119611             0.00977840635            0.000839774919           
       3.122251              0.0148618028             0.00108295455           
       3.124891              0.0318427171             0.00159994903           
       3.127532              0.0271487093             0.00144525266           
       3.130172               0.019404383             0.00124296629           
       3.132813              0.0110644299            0.000924005291           
       3.135453             0.00939289163            0.000844340089           
       3.138093             0.00676593527            0.000776470161           
       3.140734             0.00720198523            0.000739076821           
       3.143374             0.00737048064            0.000790696303           
       3.146014             0.00746273005            0.000856531028           
       3.148655             0.00711647762            0.000777534082           
       3.151295             0.00520883488            0.000708882651           
       3.153936             0.00629899807            0.000753014533           
       3.156576             0.00568861568            0.000705867334           
       3.159216             0.00670136305            0.000769960063           
       3.161857             0.00523893602            0.000678011537           
       3.164497             0.00726023341            0.000838637853           
       3.167138             0.00753192458            0.000882582003           
       3.169778             0.00658704937            0.000811756433           
       3.172418             0.00586573228            0.000758230588           
       3.175059              0.0063846276            0.000701305824           
       3.177699             0.00561109507            0.000696200971           
       3.180339             0.00574334277            0.000754664506           
       3.182980              0.0061332066            0.000806293598           
       3.185620             0.00527579582            0.000761584571           
       3.188261             0.00638583559            0.000852834617           
       3.190901             0.00537831619            0.000719829962           
       3.193541             0.00594457587            0.000795188774           
       3.196182              0.0069366452            0.000895183456           
       3.198822             0.00552898822            0.000799476457           
       3.201463             0.00334834586            0.000611435309           
       3.204103             0.00562993402            0.000788018914           
       3.206743             0.00674115969            0.000862206974           
       3.209384             0.00501462672            0.000803440981           
       3.212024             0.00626454409            0.000837223568           
       3.214664              0.0066630264            0.000981855009           
       3.217305             0.00637461846            0.000912898239           
       3.219945              0.0059729249            0.000909521765           
       3.222586             0.00615864355            0.000879669456           
       3.225226              0.0055684031            0.000927915955           
       3.227866             0.00644990513            0.000912770076           
       3.230507             0.00540249612             0.00086595839           
       3.233147             0.00721350848             0.00100870889           
       3.235787             0.00589740885            0.000933378985           
       3.238428             0.00635552401              0.0010456238           
       3.241068             0.00450624474            0.000823269174           
       3.243709             0.00465403857            0.000864403611           
       3.246349               0.005751142            0.000875950819           
       3.248989             0.00838274458             0.00124871634           
       3.251630             0.00464040675            0.000894669617           
       3.254270             0.00660289453            0.000953800656           
       3.256911             0.00574370506            0.000970633835           
       3.259551              0.0039989745            0.000871934157           
       3.262191             0.00692642425             0.00117214423           
       3.264832             0.00493975084             0.00103426792           
       3.267472             0.00474317086             0.00095075263           
       3.270112             0.00718749503             0.00129340427           
       3.272753             0.00566170408             0.00105073664           
       3.275393             0.00649733458             0.00114851425           
       3.278034             0.00528777615             0.00103669199           
       3.280674             0.00815897555             0.00139738584           
       3.283314             0.00382073057            0.000855226884           
       3.285955             0.00674106919             0.00117208691           
       3.288595             0.00429319778             0.00104063998           
       3.291235             0.00369622169             0.00099260982           
       3.293876             0.00464729773             0.00112900579           
       3.296516             0.00553036605             0.00118237228           
       3.299157             0.00691861503             0.00130585615           
       3.301797             0.00738900468             0.00153937484           
       3.304437             0.00965173731             0.00152427399           
       3.307078             0.00492408455             0.00119931104           
       3.309718             0.00496143838             0.00124259094           
       3.312359             0.00686155927             0.00146163503           
       3.314999              0.0075369489             0.00150826323           
       3.317639             0.00608011224             0.00129558029           
       3.320280             0.00805357608             0.00158533295           
       3.322920             0.00646900559             0.00144475309           
       3.325560             0.00609430186             0.00140323949           
       3.328201             0.00470205749             0.00111008345           
       3.330841             0.00502787381             0.00139706539           
       3.333482              0.0034518213             0.00109417302           
       3.336122             0.00553831359             0.00138659685           
       3.338762             0.00882783573             0.00202222175           
       3.341403              0.0055144317             0.00152721757           
       3.344043             0.00545651017               0.001458534           
       3.346683             0.00485772278             0.00140496822           
       3.349324             0.00412554761             0.00145574183           
       3.351964             0.00679995967             0.00197634057           
       3.354605              0.0045233232             0.00184345117           
       3.357245             0.00602900291             0.00191992089           
       3.359885             0.00589710847             0.00151972749           
       3.362526             0.00304595958             0.00136586086           
       3.365166             0.00484157585             0.00162419659           
       3.367807             0.00709777918             0.00251679284           
       3.370447             0.00674902234             0.00203577738           
       3.373087             0.00697198545             0.00221266336           
       3.375728             0.00358806116             0.00179145645           
       3.378368              0.0040010279             0.00280757926           
       3.381008              0.0021324423             0.00152813955           
       3.383649              0.0070515827              0.0022292159           
       3.386289             0.00690668832             0.00261110479           
       3.388930             0.00497104043             0.00350393737           
       3.391570             0.00738404218             0.00302094112           
       3.394210             0.00800403295             0.00398033456           
       3.396851             0.00242807062             0.00245227741           
       3.399491              0.0072351028             0.00423431716           
       3.402131           -2.65003406e-05                         0           
       3.404772           -2.65131309e-05                         0           
       3.407412                       nan                       nan           
       3.410053               0.009287394             0.00961298823           
       3.412693                       nan                       nan           
       3.415333              0.0090227464              0.0094840846           
