################################################################################
# EDF_DataBlockID                     0.Image.Psd
# EDF_BinarySize                      2105344
# EDF_HeaderSize                      2560
# ByteOrder                           LowByteFirst
# DataType                            FloatValue
# Dim_1                               512
# Dim_2                               1028
# Image                               0
# HeaderID                            EH:000000:000000:000000
# Size                                2105344
# Center_1                            304.9000
# Center_2                            588.7000
# Comment                             Xenocs_Cell_Window - 20251028_20perc_iodine_1.23mg
# DDummy                              0.6
# Date                                2025-10-30T07:03:49
# Delta                               21.910000
# Dummy                               -1.5
# ExposureTime                        360
# Gamma                               15.360000
# Intensity1                          8.5224e-10
# PSize_1                             7.5e-05
# PSize_2                             7.5e-05
# Pressure                            0.0324612
# SampleDistance                      0.115750
# SampleEnvKind                       large
# SampleEnvPN                         ElectroChemical cell
# SampleEnvSN                         1141
# Thickness                           0
# Wavelength                          1.541891e-10
# Wavelength                          1.54189e-10
# aux                                 0
# aux_dial                            0.002375
# beamx                               588.434
# beamx_dial                          588.434
# beamz                               657.808
# beamz_dial                          657.808
# det0x                               0
# det0x_dial                          6.36945
# det0xvd                             0
# det0xvd_dial                        0
# det0y                               450.002
# det0y_dial                          481.635
# det0z                               0
# det0z_dial                          1.23302
# det0zvd                             0
# det0zvd_dial                        0
# mag                                 1.818
# mag_dial                            1.818
# om                                  0.2499
# om_dial                             -0.610199
# phi                                 -0.0120535
# phi_dial                            0
# ry                                  0.599993
# ry_dial                             0.599993
# s1bot                               0.8
# s1bot_dial                          -1.66094
# s1hl                                0.8
# s1hl_dial                           -0.608437
# s1hr                                0.8
# s1hr_dial                           0.970938
# s1top                               0.8
# s1top_dial                          -0.461562
# s2bot                               0.45
# s2bot_dial                          1.36109
# s2hl                                0.45
# s2hl_dial                           -0.83375
# s2hr                                0.45
# s2hr_dial                           -0.118594
# s2top                               0.45
# s2top_dial                          1.44734
# w2theta                             32
# w2theta_dial                        32
# waxsch                              19.2605
# waxsch_dial                         -32.7355
# waxsh                               137.085
# waxsh_dial                          -43.5338
# waxsth                              26.0607
# waxsth_dial                         -19.4086
# waxsz                               67.0407
# waxsz_dial                          -23.7954
# wind                                65.9854
# wind_dial                           66.0041
# wpsi                                124
# wpsi_dial                           124
# wstod                               115
# wstod_dial                          115
# x                                   0
# x_dial                              1.00969
# z                                   0
# z_dial                              13.3172
# CountCutoff                         6807993
# DetectorModel                       Dectris EIGER2 Si 500K, S/N E-01-0554
# ThresholdSetting                    4023.88989258
# Saturation                          0
# FlatField                           Corrected
# BackgroundReductionExtra            0.02
# BackgroundCorrectionConstant        0.0026712
# Detector                            0
# Monitor                             0
# Pil_Roi0                            0
# SumForIntensity1                    3.06806e+08
# TransmittedFlux                     852240
# det                                 0
# mon                                 0
# pilai0                              3.06806e+08
# pilai1                              767697
# pilct0                              5.31659e+08
# pilct1                              767697
# pilroi0                             0
# pilroi1                             0
# sec                                 1
# title                               20251028_20perc_iodine_1.23mg_1_00370.edf
# usaxs0                              0
# Operation                           Azimuthal average I(q)
# Error_model                         ErrorModel.poisson
# Geometrical_correction              True
# Transmission_correction             True
# Thickness_correction                False
# Binning mode                        Uniform
# Binning factor                      1.0
# Psi                                 0.0
# Omega                               0.2499
# MaskInvalidPixels                   True
# DetectorEdge                        3
# MaskFiles                           ['WAXS_corrected.edf']
################################################################################
    q(A⁻¹)                Intensity(a.u.)            Sigma_I(a.u.)            
       0.693100             0.00828866297             0.00607960484           
       0.695741             0.00838275265             0.00498923725           
       0.698381             0.00418576693             0.00431858239           
       0.701021              0.0177133077              0.0125590187           
       0.703662             0.00569214562             0.00410944655           
       0.706302              0.0033408203             0.00243741257           
       0.708942             0.00281775421             0.00288918332           
       0.711583             0.00885235916              0.0044344407           
       0.714223             0.00288983727             0.00292513526           
       0.716864             0.00506083506             0.00253274306           
       0.719504              0.0117982239             0.00417307522           
       0.722144              0.0113436025             0.00378939795           
       0.724785             0.00637910719             0.00226676276           
       0.727425             0.00585096689             0.00293683797           
       0.730065             0.00292599337             0.00146907529           
       0.732706             0.00619512971             0.00179506975           
       0.735346              0.0114424099             0.00318008692           
       0.737987             0.00702757997             0.00176108456           
       0.740627             0.00879208778             0.00293906913           
       0.743267             0.00747202961             0.00181478527           
       0.745908             0.00777012947             0.00200783863           
       0.748548             0.00920925809             0.00201484403           
       0.751189             0.00403643795             0.00179740018           
       0.753829             0.00876362312             0.00243451577           
       0.756469             0.00657908945             0.00170093214           
       0.759110             0.00434622704             0.00145690365           
       0.761750             0.00802112677             0.00175006017           
       0.764390             0.00122992826            0.000717266666           
       0.767031               0.007816056             0.00156579084           
       0.769671             0.00589185801             0.00169582368           
       0.772312             0.00591142139             0.00129315883           
       0.774952             0.00564763802             0.00170686452           
       0.777592             0.00820726203             0.00149872505           
       0.780233              0.0071626157             0.00168920521           
       0.782873             0.00805657903             0.00171342285           
       0.785513             0.00499293643              0.0014420191           
       0.788154             0.00608583441             0.00133179362           
       0.790794             0.00749854882             0.00176735792           
       0.793435             0.00803121399             0.00164314812           
       0.796075             0.00684899703             0.00146172531           
       0.798715             0.00520486245             0.00150580818           
       0.801356             0.00958042059             0.00175830101           
       0.803996             0.00969931087             0.00180369912           
       0.806637             0.00593854231             0.00112317079           
       0.809277             0.00670179414             0.00129146532           
       0.811917             0.00761497195              0.0012869421           
       0.814558             0.00629478442              0.0012160884           
       0.817198             0.00975790213             0.00143846063           
       0.819838              0.0071500211             0.00124619392           
       0.822479             0.00781439094             0.00152984923           
       0.825119             0.00868610414              0.0013728001           
       0.827760             0.00626309814             0.00118081601           
       0.830400             0.00663570137              0.0011439479           
       0.833040             0.00692078071             0.00122397919           
       0.835681             0.00615438341             0.00131215111           
       0.838321             0.00708214897             0.00118142954           
       0.840961             0.00699033947             0.00127885239           
       0.843602             0.00701049029               0.001174449           
       0.846242             0.00685052446             0.00116079919           
       0.848883             0.00803674873             0.00128665513           
       0.851523             0.00741265152             0.00122033825           
       0.854163             0.00633008697              0.0011992713           
       0.856804             0.00679754854             0.00111741552           
       0.859444             0.00758545261             0.00115656417           
       0.862085              0.0078393065             0.00122543376           
       0.864725             0.00522268205              0.0010236273           
       0.867365             0.00744094346             0.00113298711           
       0.870006              0.0059561859            0.000965946275           
       0.872646             0.00635113693             0.00104597268           
       0.875286             0.00779897183             0.00111510634           
       0.877927             0.00652136786            0.000983950589           
       0.880567             0.00814849676             0.00113949116           
       0.883208             0.00545511538            0.000923556236           
       0.885848             0.00890867718             0.00122543766           
       0.888488             0.00872305176             0.00113734729           
       0.891129             0.00748499362             0.00108177458           
       0.893769             0.00629017589            0.000949065507           
       0.896410             0.00831683802             0.00101747344           
       0.899050             0.00888426701             0.00115648524           
       0.901690             0.00713134131             0.00112864835           
       0.904331             0.00828757399             0.00107867958           
       0.906971             0.00858028364             0.00116762655           
       0.909611             0.00830547056             0.00104575362           
       0.912252             0.00868701248             0.00110468547           
       0.914892             0.00652918657             0.00104657031           
       0.917533             0.00913296184             0.00117093868           
       0.920173             0.00773791362            0.000999991313           
       0.922813             0.00721942505             0.00101361124           
       0.925454             0.00633930142            0.000855285761           
       0.928094             0.00747242764            0.000991342182           
       0.930734             0.00807250782             0.00110931685           
       0.933375             0.00716629394             0.00103492332           
       0.936015             0.00799597866            0.000992852669           
       0.938656             0.00754176148             0.00103440227           
       0.941296             0.00921907679             0.00103647053           
       0.943936             0.00693482064            0.000881550318           
       0.946577             0.00872175451            0.000982088656           
       0.949217             0.00681456469            0.000798293132           
       0.951858             0.00881462852            0.000950406132           
       0.954498             0.00644736773            0.000940833596           
       0.957138             0.00554215169             0.00082637521           
       0.959779              0.0068210017             0.00090375046           
       0.962419             0.00824382982            0.000986939492           
       0.965059             0.00572807311            0.000865242823           
       0.967700             0.00779135148             0.00103353274           
       0.970340             0.00857589043            0.000959515849           
       0.972981              0.0086414346            0.000877545373           
       0.975621             0.00614944233            0.000787527653           
       0.978261             0.00745239067            0.000823758184           
       0.980902             0.00817375644             0.00103218461           
       0.983542             0.00888300363            0.000952899237           
       0.986182             0.00660095563            0.000806474755           
       0.988823             0.00846608112            0.000886846769           
       0.991463             0.00707450862            0.000864923039           
       0.994104             0.00885761601            0.000944108439           
       0.996744             0.00723079668            0.000870068202           
       0.999384              0.0068791269            0.000758973962           
       1.002025             0.00888331139             0.00096263858           
       1.004665             0.00723650463            0.000794013056           
       1.007306             0.00559922348            0.000694861828           
       1.009946             0.00878942874            0.000887882461           
       1.012586             0.00695596754            0.000769283863           
       1.015227             0.00754935292            0.000860981008           
       1.017867             0.00863584972            0.000885005326           
       1.020507             0.00816844335            0.000833726406           
       1.023148             0.00721885005            0.000845707859           
       1.025788              0.0082370656            0.000828332319           
       1.028429             0.00794640189            0.000852365414           
       1.031069             0.00858348596            0.000833642354           
       1.033709             0.00894085515            0.000904423256           
       1.036350              0.0074483833            0.000741405234           
       1.038990             0.00750325067            0.000757805383           
       1.041630             0.00725126941            0.000777013377           
       1.044271             0.00565599832            0.000645383916           
       1.046911             0.00864415101             0.00083924074           
       1.049552             0.00765421633            0.000829706054           
       1.052192             0.00832738722            0.000790240609           
       1.054832             0.00938755487            0.000846669781           
       1.057473             0.00914306151            0.000823697121           
       1.060113             0.00840348875            0.000770153441           
       1.062754              0.0086869474            0.000799464689           
       1.065394             0.00961677616            0.000889327313           
       1.068034              0.0106247886            0.000850516949           
       1.070675             0.00897666072            0.000815484464           
       1.073315             0.00892707972            0.000824885823           
       1.075955             0.00838882834            0.000754897664           
       1.078596             0.00774754393            0.000771030672           
       1.081236             0.00780596358            0.000741090548           
       1.083877             0.00906197135            0.000791326813           
       1.086517              0.0085457638             0.00082401157           
       1.089157             0.00899475748            0.000877177726           
       1.091798             0.00911888134            0.000774324176           
       1.094438             0.00915303459            0.000773269015           
       1.097078             0.00756665804            0.000674320299           
       1.099719             0.00822765246            0.000760571531           
       1.102359             0.00864410602            0.000730088431           
       1.105000             0.00878145923            0.000822841654           
       1.107640              0.0070375303            0.000704327783           
       1.110280             0.00943989465            0.000744294529           
       1.112921             0.00914572948            0.000786977175           
       1.115561             0.00844969735            0.000718931317           
       1.118202             0.00897586659            0.000741675698           
       1.120842             0.00811254205            0.000741070844           
       1.123482             0.00964797474             0.00080463392           
       1.126123             0.00904968812            0.000747466169           
       1.128763             0.00826101624            0.000719049803           
       1.131403             0.00835159473            0.000696654204           
       1.134044             0.00917995441            0.000751569629           
       1.136684             0.00938831363            0.000810346191           
       1.139325             0.00700142022            0.000644648938           
       1.141965             0.00954952844            0.000757849179           
       1.144605             0.00928913827              0.0007126915           
       1.147246             0.00921060863            0.000726288507           
       1.149886             0.00880773791            0.000707705766           
       1.152527             0.00877891315             0.00071682138           
       1.155167             0.00725806222            0.000619941892           
       1.157807             0.00950104411            0.000760489578           
       1.160448             0.00953535501            0.000743977269           
       1.163088             0.00934532012            0.000702537812           
       1.165728             0.00850338534            0.000688050161           
       1.168369             0.00957406346            0.000736828081           
       1.171009             0.00933513157            0.000706092568           
       1.173650             0.00910164944            0.000715500177           
       1.176290              0.0089181961            0.000692121709           
       1.178930             0.00960256186            0.000703888615           
       1.181571             0.00927562524            0.000705520954           
       1.184211              0.0103096782            0.000746445279           
       1.186851             0.00893343777            0.000679334926           
       1.189492             0.00958892167            0.000699081683           
       1.192132             0.00976551285            0.000697573913           
       1.194773             0.00979838499            0.000701800001           
       1.197413             0.00789678249            0.000603657902           
       1.200053              0.0106761721            0.000719731463           
       1.202694             0.00960056851            0.000649031184           
       1.205334             0.00992645011            0.000711224518           
       1.207975              0.0100215358            0.000682127633           
       1.210615              0.0097678327             0.00074291652           
       1.213255              0.0091005735            0.000642139989           
       1.215896             0.00910995203            0.000654111703           
       1.218536             0.00856980745            0.000610025549           
       1.221176             0.00979528127            0.000709059136           
       1.223817              0.0102466082            0.000680767374           
       1.226457             0.00991823862            0.000683263777           
       1.229098              0.0112475105            0.000727575667           
       1.231738              0.0094642351             0.00067069477           
       1.234378             0.00946924363            0.000630385275           
       1.237019             0.00931055904            0.000644140047           
       1.239659             0.00909862443            0.000631219743           
       1.242299             0.00919194288             0.00062638773           
       1.244940               0.010207061            0.000641959377           
       1.247580             0.00998224242            0.000654265023           
       1.250221             0.00917818332            0.000623490665           
       1.252861             0.00979156795            0.000613079583           
       1.255501              0.0105035411             0.00068946462           
       1.258142                0.01204862            0.000693892961           
       1.260782              0.0115963784            0.000695475345           
       1.263423              0.0104762565            0.000635178633           
       1.266063              0.0107912265             0.00066075422           
       1.268703             0.00996429041            0.000629664043           
       1.271344             0.00981607095            0.000646143813           
       1.273984              0.0108969466            0.000657508217           
       1.276624             0.00999822527            0.000617979021           
       1.279265              0.0107819224            0.000652398995           
       1.281905                0.01093438            0.000659911147           
       1.284546              0.0104987816             0.00062502939           
       1.287186              0.0100575963            0.000600197344           
       1.289826              0.0114961485            0.000676285419           
       1.292467              0.0114499117            0.000660058304           
       1.295107              0.0123813771            0.000679563474           
       1.297747              0.0111670158            0.000617573089           
       1.300388              0.0102062442            0.000643620055           
       1.303028              0.0103234969            0.000617957692           
       1.305669              0.0104997689            0.000638050353           
       1.308309                0.01087882             0.00064306963           
       1.310949               0.010225055            0.000622821018           
       1.313590               0.010755551            0.000618805981           
       1.316230              0.0105713363            0.000654672424           
       1.318871             0.00967483375            0.000613381759           
       1.321511              0.0112497536            0.000649165305           
       1.324151              0.0109260458            0.000620790927           
       1.326792              0.0103871525            0.000609030193           
       1.329432              0.0111361331            0.000626155472           
       1.332072              0.0109959989            0.000612930575           
       1.334713              0.0109306956            0.000630723921           
       1.337353              0.0112557853            0.000613805735           
       1.339994              0.0119240162            0.000662972537           
       1.342634              0.0113394627            0.000619969985           
       1.345274              0.0112128215              0.0006380178           
       1.347915              0.0117633559            0.000635446899           
       1.350555              0.0108077264            0.000619756576           
       1.353195              0.0105245798            0.000614588133           
       1.355836              0.0117921054             0.00064040115           
       1.358476              0.0114069417            0.000611685476           
       1.361117              0.0109496802            0.000600122609           
       1.363757              0.0113897761             0.00063075314           
       1.366397              0.0104409876            0.000585635486           
       1.369038              0.0128235972            0.000655487644           
       1.371678              0.0105988705            0.000590668251           
       1.374319              0.0106666421            0.000587451281           
       1.376959              0.0115731898            0.000605752089           
       1.379599              0.0112769003            0.000640818942           
       1.382240              0.0118078154             0.00061628804           
       1.384880              0.0111217401            0.000633540622           
       1.387520              0.0119605398            0.000623970465           
       1.390161              0.0125237445            0.000606414414           
       1.392801                0.01104401            0.000593325657           
       1.395442              0.0115549896            0.000615185144           
       1.398082               0.010624417            0.000552409562           
       1.400722               0.011829438            0.000610569637           
       1.403363              0.0116599808            0.000638078777           
       1.406003               0.011096005            0.000582535274           
       1.408644              0.0117787881            0.000628738708           
       1.411284              0.0104413572            0.000560541355           
       1.413924              0.0109844928            0.000572804144           
       1.416565              0.0114677487            0.000582969606           
       1.419205                0.01147724            0.000608381931           
       1.421845               0.010398116            0.000578735096           
       1.424486              0.0111548911            0.000576185618           
       1.427126              0.0119326671            0.000619060671           
       1.429767              0.0105633817            0.000548023846           
       1.432407              0.0114503441            0.000597112506           
       1.435047              0.0102874157            0.000531547884           
       1.437688              0.0118652263            0.000579392221           
       1.440328              0.0111626959            0.000573561472           
       1.442968              0.0105927751            0.000571246438           
       1.445609              0.0109346273             0.00056197938           
       1.448249              0.0110816779            0.000580069851           
       1.450890               0.011142898             0.00057787339           
       1.453530              0.0114387899            0.000612546194           
       1.456170              0.0112989076            0.000590844326           
       1.458811              0.0109727665            0.000556764204           
       1.461451               0.010405357            0.000543600066           
       1.464092              0.0103148589            0.000544769458           
       1.466732              0.0104070437            0.000542496156           
       1.469372              0.0105211727            0.000532697191           
       1.472013              0.0110685387             0.00058927996           
       1.474653              0.0107199316            0.000570979847           
       1.477293              0.0101977011            0.000568635885           
       1.479934              0.0117521556            0.000582485818           
       1.482574              0.0107480433            0.000538855262           
       1.485215              0.0111736296            0.000559653196           
       1.487855              0.0124133555            0.000597665312           
       1.490495              0.0105899826            0.000549994893           
       1.493136              0.0109043831            0.000550449633           
       1.495776              0.0107547793            0.000544171491           
       1.498416              0.0114779429              0.0005805618           
       1.501057              0.0110909855            0.000558114422           
       1.503697              0.0107611772            0.000537471815           
       1.506338              0.0119599495            0.000576972243           
       1.508978              0.0117880574            0.000567177828           
       1.511618              0.0109197761            0.000581369991           
       1.514259              0.0106419068            0.000554098118           
       1.516899              0.0114165602            0.000558799113           
       1.519540              0.0114686618            0.000569104343           
       1.522180              0.0109489031            0.000560943641           
       1.524820              0.0103557839            0.000542477782           
       1.527461              0.0109034936            0.000559391534           
       1.530101              0.0112621543            0.000562831653           
       1.532741              0.0109226754            0.000551067216           
       1.535382              0.0107072171            0.000554388603           
       1.538022              0.0106406005            0.000520636204           
       1.540663               0.010182322            0.000547784906           
       1.543303              0.0104352045            0.000514904478           
       1.545943              0.0105683596            0.000548454424           
       1.548584                 0.0111993             0.00057472343           
       1.551224              0.0106921622             0.00051921537           
       1.553864             0.00995382665            0.000529366087           
       1.556505              0.0108128443             0.00053299093           
       1.559145              0.0124782377            0.000579581102           
       1.561786              0.0107222488            0.000537668849           
       1.564426              0.0111863795             0.00053210068           
       1.567066              0.0103684428            0.000536769113           
       1.569707              0.0102027998            0.000522899491           
       1.572347             0.00992598457            0.000532828794           
       1.574988              0.0102775076            0.000516065997           
       1.577628              0.0103071914            0.000538906151           
       1.580268              0.0108179011            0.000534922066           
       1.582909              0.0104604373            0.000557549593           
       1.585549             0.00950140398            0.000515949753           
       1.588189              0.0104294449            0.000528762325           
       1.590830             0.00944380977            0.000502525487           
       1.593470              0.0101959523            0.000542828858           
       1.596111             0.00892419698             0.00049581725           
       1.598751             0.00940736762            0.000493264512           
       1.601391             0.00895704983            0.000491932903           
       1.604032              0.0102081253              0.0005361444           
       1.606672             0.00903218627            0.000489993662           
       1.609312             0.00925873433            0.000517871101           
       1.611953             0.00942450939            0.000511285807           
       1.614593              0.0101109295            0.000519474038           
       1.617234              0.0104208205            0.000546558836           
       1.619874             0.00970962622            0.000525494588           
       1.622514             0.00910008751            0.000501792978           
       1.625155             0.00917649521            0.000506871953           
       1.627795             0.00957996244            0.000505205673           
       1.630436              0.0094592159            0.000499390413           
       1.633076              0.0099766871            0.000519594715           
       1.635716             0.00892563274            0.000483816509           
       1.638357             0.00880786924            0.000481881033           
       1.640997             0.00876395429            0.000495238952           
       1.643637              0.0099261939            0.000512884137           
       1.646278             0.00931427004            0.000512433946           
       1.648918             0.00981293966            0.000527407327           
       1.651559             0.00940511835            0.000520339123           
       1.654199             0.00987508443            0.000518565467           
       1.656839             0.00950884043            0.000509036043           
       1.659480             0.00834282864             0.00049471062           
       1.662120             0.00960768198            0.000500010159           
       1.664761             0.00876597469            0.000496109185           
       1.667401             0.00841720183            0.000464645402           
       1.670041             0.00913892674            0.000491538346           
       1.672682             0.00896478143            0.000484831642           
       1.675322             0.00952704197            0.000496590494           
       1.677962             0.00876127389            0.000470961651           
       1.680603             0.00917579321            0.000483457282           
       1.683243               0.008181291            0.000476279671           
       1.685884             0.00960969053            0.000519997375           
       1.688524             0.00912423093            0.000496898188           
       1.691164             0.00896017835            0.000492522606           
       1.693805             0.00890023472            0.000496264778           
       1.696445             0.00861369301            0.000491042812           
       1.699085             0.00847517346            0.000470757419           
       1.701726             0.00883231071            0.000462948915           
       1.704366             0.00906430491             0.00049406762           
       1.707007             0.00867484639             0.00047256289           
       1.709647             0.00828775018            0.000467115287           
       1.712287             0.00928795132            0.000498803588           
       1.714928             0.00953512489             0.00050947197           
       1.717568             0.00852631398            0.000453827173           
       1.720209             0.00805204196            0.000461942715           
       1.722849             0.00887560801            0.000482498151           
       1.725489             0.00827632665            0.000466315583           
       1.728130             0.00975557785            0.000538029858           
       1.730770             0.00914371435            0.000494700021           
       1.733410             0.00915155351            0.000487132498           
       1.736051             0.00814448816             0.00046274742           
       1.738691             0.00913270624              0.0004800845           
       1.741332             0.00909430842             0.00049308264           
       1.743972             0.00804224993            0.000478834177           
       1.746612              0.0090233465            0.000487042345           
       1.749253             0.00778073116            0.000461196642           
       1.751893             0.00853764312            0.000479562675           
       1.754533             0.00854653265            0.000479364186           
       1.757174             0.00874831522            0.000480448354           
       1.759814             0.00851455899            0.000466801359           
       1.762455             0.00834724337            0.000470678982           
       1.765095              0.0089553289            0.000466373872           
       1.767735              0.0087040945            0.000473969841           
       1.770376             0.00839832799            0.000466797733           
       1.773016             0.00859281273            0.000469009012           
       1.775657             0.00832505174            0.000455001352           
       1.778297             0.00859559488             0.00045835433           
       1.780937             0.00887474906            0.000491585991           
       1.783578             0.00864100781            0.000472940368           
       1.786218             0.00918952506             0.00050898936           
       1.788858             0.00833249812            0.000460323417           
       1.791499             0.00813342725            0.000449683677           
       1.794139             0.00891561017            0.000466990432           
       1.796780             0.00767162056            0.000431099231           
       1.799420             0.00851871777            0.000451761385           
       1.802060             0.00889915684            0.000465468457           
       1.804701             0.00928514033            0.000456268929           
       1.807341             0.00880923151            0.000466990987           
       1.809981              0.0103657454            0.000508259262           
       1.812622             0.00874774869            0.000458504114           
       1.815262             0.00879837191            0.000469596706           
       1.817903             0.00844276999            0.000453193141           
       1.820543             0.00958666187            0.000490444262           
       1.823183             0.00846820465            0.000460694266           
       1.825824             0.00863467584            0.000444433694           
       1.828464             0.00854870849            0.000461029044           
       1.831105             0.00821549939            0.000439459228           
       1.833745             0.00870787573            0.000462099259           
       1.836385             0.00837142008            0.000466014315           
       1.839026             0.00866237383            0.000472545735           
       1.841666             0.00913734736             0.00048360718           
       1.844306             0.00854538552            0.000454918813           
       1.846947              0.0090367032            0.000471914583           
       1.849587             0.00910200182            0.000522987458           
       1.852228             0.00888765543            0.000467308721           
       1.854868              0.0081139588             0.00047166688           
       1.857508             0.00862310274            0.000481471097           
       1.860149             0.00886407362            0.000497021076           
       1.862789             0.00853859153            0.000470850057           
       1.865429             0.00805202804            0.000477286329           
       1.868070             0.00776922644             0.00046258116           
       1.870710             0.00866261426            0.000477192753           
       1.873351             0.00917893079            0.000497280415           
       1.875991             0.00835173189            0.000482085579           
       1.878631             0.00818593655            0.000468135605           
       1.881272             0.00857799955            0.000476004227           
       1.883912             0.00785908155            0.000474168903           
       1.886553             0.00808658615            0.000475605661           
       1.889193             0.00894592224            0.000499383591           
       1.891833             0.00747692881            0.000474139504           
       1.894474             0.00832350963            0.000495905502           
       1.897114             0.00871501754            0.000491033576           
       1.899754             0.00841546963            0.000484539925           
       1.902395               0.008414225            0.000475031457           
       1.905035              0.0090200828            0.000520937067           
       1.907676             0.00852145266            0.000477220984           
       1.910316             0.00804889392             0.00047611476           
       1.912956             0.00883021295            0.000487717043           
       1.915597             0.00813839695            0.000470838788           
       1.918237             0.00813336604            0.000486111585           
       1.920878             0.00828124317            0.000488502829           
       1.923518             0.00755474697            0.000466781361           
       1.926158             0.00823452182            0.000481005717           
       1.928799             0.00786544081            0.000464660953           
       1.931439             0.00798791903            0.000480546863           
       1.934079             0.00819462755            0.000507398692           
       1.936720             0.00778972905            0.000458358141           
       1.939360             0.00782051016            0.000489969418           
       1.942001             0.00854948994            0.000469546148           
       1.944641             0.00734121304            0.000443673568           
       1.947281             0.00815595689            0.000463335346           
       1.949922              0.0081754186            0.000479155086           
       1.952562             0.00814969253            0.000493396363           
       1.955202             0.00791764622            0.000485728588           
       1.957843             0.00861927189            0.000493650741           
       1.960483             0.00801927388            0.000497823629           
       1.963124             0.00806373375            0.000488960385           
       1.965764             0.00790714351            0.000456604292           
       1.968404             0.00808100469            0.000457235527           
       1.971045             0.00797982542            0.000463248063           
       1.973685             0.00835563555            0.000497223038           
       1.976326             0.00756283851            0.000466545161           
       1.978966             0.00893676968            0.000511606713           
       1.981606             0.00759104222            0.000481350015           
       1.984247             0.00801096044            0.000491233388           
       1.986887             0.00772858505            0.000476718303           
       1.989527               0.007305775            0.000458503364           
       1.992168             0.00782770008            0.000492436289           
       1.994808             0.00820843433            0.000502108398           
       1.997449             0.00809678774             0.00048844081           
       2.000089             0.00856576876            0.000500395599           
       2.002729              0.0072485886            0.000460592995           
       2.005370             0.00714915185            0.000452501129           
       2.008010             0.00723580657            0.000475103235           
       2.010650             0.00784298548            0.000498326315           
       2.013291             0.00841629048            0.000495282975           
       2.015931             0.00787171515            0.000475605472           
       2.018572             0.00807615724             0.00051526866           
       2.021212             0.00789261008            0.000500227857           
       2.023852             0.00782571269            0.000471431397           
       2.026493             0.00774805129             0.00049004415           
       2.029133             0.00763710005            0.000476732007           
       2.031774             0.00679078045             0.00047178395           
       2.034414             0.00802769259            0.000471989225           
       2.037054             0.00778376173            0.000476543147           
       2.039695             0.00709374193            0.000451494714           
       2.042335             0.00811977921            0.000501989216           
       2.044975             0.00669111845            0.000450165944           
       2.047616             0.00795409838            0.000489596833           
       2.050256             0.00745514607             0.00047847786           
       2.052897             0.00769914355            0.000495209013           
       2.055537             0.00790631085            0.000484996997           
       2.058177             0.00758171229            0.000465091124           
       2.060818              0.0070110212             0.00046852329           
       2.063458              0.0075426245            0.000506420067           
       2.066098             0.00870970531            0.000513354454           
       2.068739              0.0078903195            0.000496205573           
       2.071379             0.00738489342            0.000492569841           
       2.074020              0.0079487923            0.000499923758           
       2.076660              0.0067343472            0.000463871462           
       2.079300              0.0072892514             0.00049442928           
       2.081941             0.00764674122            0.000463674594           
       2.084581             0.00794698849            0.000498928887           
       2.087222             0.00736662875             0.00046326655           
       2.089862             0.00783174441            0.000520252926           
       2.092502             0.00717489779            0.000482699664           
       2.095143             0.00748224144            0.000509023651           
       2.097783             0.00811521038            0.000513242795           
       2.100423             0.00752913117            0.000476363644           
       2.103064              0.0072059394            0.000483566086           
       2.105704             0.00734874364            0.000485915287           
       2.108345             0.00756691075            0.000473713595           
       2.110985             0.00721030088            0.000493894186           
       2.113625             0.00691710882            0.000487969787           
       2.116266             0.00765117554            0.000520490763           
       2.118906             0.00775335501            0.000488296468           
       2.121546             0.00774133874            0.000478602082           
       2.124187             0.00754909937            0.000496107345           
       2.126827             0.00790036699            0.000513182596           
       2.129468             0.00764639906            0.000506156346           
       2.132108             0.00764580944             0.00049243262           
       2.134748             0.00653724349            0.000453569835           
       2.137389             0.00777967404            0.000516196741           
       2.140029             0.00769922986            0.000459735332           
       2.142670             0.00786885068            0.000496711777           
       2.145310             0.00775179607            0.000479849107           
       2.147950             0.00701872491            0.000469962285           
       2.150591              0.0074096982            0.000477994413           
       2.153231              0.0076932521            0.000501346864           
       2.155871             0.00679474252            0.000455173371           
       2.158512             0.00750869344            0.000499270001           
       2.161152             0.00734372745            0.000478281957           
       2.163793             0.00713337246            0.000469260079           
       2.166433             0.00712955757            0.000481751795           
       2.169073             0.00748262386            0.000482548403           
       2.171714             0.00655460485            0.000448258392           
       2.174354             0.00742859679            0.000498639254           
       2.176995             0.00773951537            0.000506825774           
       2.179635             0.00705597316            0.000511373497           
       2.182275             0.00692681558            0.000478378395           
       2.184916             0.00770641236             0.00048735968           
       2.187556             0.00731538867            0.000470075209           
       2.190196             0.00838561911            0.000525928739           
       2.192837             0.00626770543            0.000452214264           
       2.195477             0.00735487156            0.000467029282           
       2.198118             0.00699023504            0.000466971562           
       2.200758             0.00794663958            0.000510808328           
       2.203398             0.00712013206            0.000486608534           
       2.206039             0.00710832215            0.000460151687           
       2.208679             0.00811958551            0.000503240772           
       2.211319             0.00718560447            0.000476143095           
       2.213960             0.00753472987              0.0004941057           
       2.216600             0.00795667638            0.000525258393           
       2.219241             0.00747921724            0.000486710088           
       2.221881             0.00804672645            0.000505875809           
       2.224521             0.00677638319            0.000469918677           
       2.227162             0.00767440735            0.000490074754           
       2.229802             0.00689928603            0.000479213091           
       2.232443             0.00660653808            0.000461539511           
       2.235083             0.00782353313            0.000517069088           
       2.237723             0.00872663571            0.000524060255           
       2.240364             0.00750572839            0.000497993559           
       2.243004             0.00587934302            0.000437231088           
       2.245644             0.00767088933            0.000504423047           
       2.248285             0.00783648311            0.000499624967           
       2.250925              0.0084299743            0.000521346956           
       2.253566             0.00765745864            0.000531208298           
       2.256206             0.00701713265            0.000498345596           
       2.258846             0.00708368973            0.000476307442           
       2.261487             0.00688848896            0.000492992615           
       2.264127              0.0072215516             0.00048749905           
       2.266767             0.00720500648            0.000499913704           
       2.269408             0.00745924822            0.000510740384           
       2.272048             0.00694160849            0.000489759198           
       2.274689             0.00707927385             0.00050110869           
       2.277329             0.00678820873             0.00046202473           
       2.279969             0.00656519327            0.000483652779           
       2.282610             0.00730048841            0.000495833447           
       2.285250             0.00728353937            0.000474028767           
       2.287891             0.00667157072             0.00048641108           
       2.290531             0.00656068569            0.000488836046           
       2.293171             0.00768920111            0.000515499787           
       2.295812              0.0074061043            0.000503887469           
       2.298452             0.00805385481            0.000549492637           
       2.301092             0.00644166688            0.000456596169           
       2.303733             0.00784587586            0.000524243484           
       2.306373             0.00738763398            0.000516715157           
       2.309014             0.00729130257            0.000503321225           
       2.311654             0.00738922149            0.000528754689           
       2.314294             0.00585132535            0.000433495729           
       2.316935             0.00708558044            0.000479000508           
       2.319575             0.00812307349            0.000537370481           
       2.322215             0.00784393792            0.000550324393           
       2.324856             0.00701314386            0.000478421634           
       2.327496             0.00630453727            0.000482328121           
       2.330137             0.00700082636            0.000486372056           
       2.332777             0.00834125044            0.000547410489           
       2.335417             0.00740438778            0.000500357928           
       2.338058             0.00644445191            0.000480742515           
       2.340698             0.00797826954            0.000530698115           
       2.343339             0.00688693143            0.000503917557           
       2.345979              0.0068302057            0.000474778617           
       2.348619             0.00741765272            0.000512860515           
       2.351260             0.00742480349            0.000510118169           
       2.353900             0.00686884199            0.000489093774           
       2.356540             0.00694096299            0.000490956831           
       2.359181             0.00786112029            0.000515162201           
       2.361821             0.00750036932            0.000486080544           
       2.364462               0.007556347            0.000510273004           
       2.367102             0.00734974049            0.000517168524           
       2.369742             0.00689939932            0.000527414816           
       2.372383              0.0071849389            0.000487355079           
       2.375023             0.00698029331            0.000504967051           
       2.377663              0.0069432645            0.000481540314           
       2.380304              0.0071476545            0.000496722926           
       2.382944             0.00677029009            0.000460454393           
       2.385585             0.00722375188             0.00050726193           
       2.388225             0.00746507974            0.000513242421           
       2.390865             0.00743851786            0.000507065754           
       2.393506             0.00681689686            0.000476258442           
       2.396146             0.00637761609            0.000498084093           
       2.398787             0.00653352004            0.000464599792           
       2.401427             0.00771633766            0.000487351229           
       2.404067             0.00713974192            0.000479245947           
       2.406708             0.00729067735            0.000478477759           
       2.409348             0.00784937229            0.000526606308           
       2.411988              0.0074227771             0.00050174128           
       2.414629             0.00764749377            0.000525140414           
       2.417269             0.00737378047            0.000521677508           
       2.419910             0.00771856607            0.000534973064           
       2.422550             0.00713660054            0.000492155651           
       2.425190             0.00676150396            0.000504965923           
       2.427831             0.00570127739            0.000461082134           
       2.430471             0.00674723069            0.000477868098           
       2.433112             0.00689457965            0.000470383213           
       2.435752             0.00693869455            0.000499402381           
       2.438392             0.00742440446            0.000498610941           
       2.441033             0.00692119748            0.000510205477           
       2.443673             0.00719722808            0.000520679978           
       2.446313             0.00651984159            0.000496008949           
       2.448954              0.0067942616            0.000482106332           
       2.451594             0.00773067041            0.000552946532           
       2.454235             0.00796814232            0.000526713119           
       2.456875              0.0067737051            0.000508146816           
       2.459515             0.00829201435            0.000576774112           
       2.462156              0.0082908862            0.000544518044           
       2.464796             0.00791710707            0.000525237207           
       2.467436             0.00765252563             0.00053400397           
       2.470077             0.00874326273            0.000541008431           
       2.472717             0.00760344583            0.000506698601           
       2.475358             0.00798896936            0.000524801207           
       2.477998             0.00689303476            0.000479259443           
       2.480638             0.00727738464            0.000501189956           
       2.483279             0.00735716561            0.000526686876           
       2.485919             0.00710455813            0.000498793206           
       2.488560              0.0075895935             0.00051409818           
       2.491200              0.0075773888            0.000528959442           
       2.493840             0.00769510971            0.000564039366           
       2.496481             0.00723717525            0.000538051315           
       2.499121             0.00658053829            0.000499034749           
       2.501761             0.00826977918            0.000566843843           
       2.504402             0.00773388856            0.000540161477           
       2.507042             0.00706365231             0.00051240117           
       2.509683             0.00705896498            0.000504402447           
       2.512323             0.00750662335            0.000546287203           
       2.514963             0.00743213263            0.000536854433           
       2.517604             0.00743605285            0.000557215936           
       2.520244             0.00793054271             0.00053948065           
       2.522884             0.00866633945            0.000572017211           
       2.525525               0.012148133            0.000684932195           
       2.528165              0.0118163085            0.000664983328           
       2.530806              0.0112884621            0.000661289882           
       2.533446              0.0112987132            0.000647468872           
       2.536086             0.00764943348            0.000527976311           
       2.538727             0.00752323076            0.000502317335           
       2.541367             0.00713893141            0.000494139593           
       2.544008             0.00670436677            0.000494549324           
       2.546648             0.00652943468            0.000496426175           
       2.549288             0.00749838371            0.000542826294           
       2.551929             0.00719026197            0.000523083369           
       2.554569              0.0076865657            0.000521049181           
       2.557209             0.00629037734             0.00047568686           
       2.559850             0.00756122796            0.000523204353           
       2.562490             0.00673109054            0.000510212321           
       2.565131             0.00744128919            0.000556219445           
       2.567771             0.00574883422            0.000471364247           
       2.570411             0.00692929484            0.000511901794           
       2.573052             0.00666806253            0.000508483827           
       2.575692             0.00708424304            0.000520938163           
       2.578332             0.00618330808             0.00048869974           
       2.580973             0.00649110073            0.000495951132           
       2.583613             0.00805343847            0.000539267591           
       2.586254             0.00674492135            0.000492831101           
       2.588894             0.00629088176            0.000494256015           
       2.591534             0.00586789616            0.000494147375           
       2.594175             0.00655944796            0.000512596034           
       2.596815             0.00624350846            0.000503047664           
       2.599456             0.00731885233            0.000516487601           
       2.602096              0.0071459495            0.000514234236           
       2.604736             0.00669924612            0.000509708476           
       2.607377             0.00639140149            0.000484739432           
       2.610017             0.00735020059            0.000510731463           
       2.612657             0.00751811753              0.0005494101           
       2.615298              0.0072723236             0.00052755587           
       2.617938             0.00660160784            0.000537695945           
       2.620579             0.00766619352            0.000556247973           
       2.623219             0.00668482013             0.00051868525           
       2.625859             0.00734083171            0.000528473532           
       2.628500             0.00687259022            0.000507989614           
       2.631140             0.00641621094            0.000498396097           
       2.633780             0.00734971272            0.000532957764           
       2.636421             0.00681380477            0.000525779171           
       2.639061             0.00672790213             0.00049183074           
       2.641702             0.00763842098            0.000536188138           
       2.644342             0.00660781569            0.000500830712           
       2.646982             0.00788879466            0.000539045835           
       2.649623             0.00748069696            0.000550092904           
       2.652263             0.00705268609            0.000528764325           
       2.654904             0.00682953716            0.000520855435           
       2.657544             0.00574115168             0.00044980487           
       2.660184             0.00631243071            0.000499146627           
       2.662825             0.00738477142             0.00055240655           
       2.665465             0.00700003416            0.000520164622           
       2.668105             0.00716184193            0.000554573999           
       2.670746             0.00798480994            0.000540942568           
       2.673386             0.00897611595            0.000591078108           
       2.676027             0.00871921122            0.000573208459           
       2.678667              0.0115793884            0.000644548155           
       2.681307              0.0116822082             0.00063611074           
       2.683948              0.0154515776            0.000751655622           
       2.686588              0.0115380863            0.000638758711           
       2.689229              0.0101093791            0.000584248041           
       2.691869             0.00899984355             0.00058262167           
       2.694509             0.00799990409            0.000549604295           
       2.697150             0.00709113923            0.000509051775           
       2.699790             0.00846823941            0.000583189157           
       2.702430             0.00792185962            0.000539174976           
       2.705071              0.0072304429            0.000532267286           
       2.707711             0.00694526717            0.000506315096           
       2.710352             0.00720749364            0.000544991187           
       2.712992             0.00662569833            0.000532193976           
       2.715632             0.00617479908            0.000476673116           
       2.718273             0.00687685041            0.000521335074           
       2.720913              0.0073060276             0.00053582792           
       2.723553             0.00736995533            0.000541777899           
       2.726194             0.00749152479            0.000570988319           
       2.728834             0.00805442376            0.000592329088           
       2.731475              0.0070781721            0.000512468083           
       2.734115             0.00740371757            0.000540386854           
       2.736755             0.00725933249            0.000539495913           
       2.739396             0.00640020111            0.000503631716           
       2.742036              0.0070243776            0.000552186478           
       2.744677             0.00636249462            0.000509906674           
       2.747317             0.00764263651            0.000554869242           
       2.749957             0.00713759968            0.000539985753           
       2.752598             0.00616079668            0.000507122008           
       2.755238             0.00811824612            0.000592645783           
       2.757878             0.00739295482            0.000560607985           
       2.760519             0.00801605805            0.000577565399           
       2.763159             0.00933928039            0.000617185348           
       2.765800             0.00719166142            0.000516130245           
       2.768440             0.00796608584            0.000547211045           
       2.771080             0.00779377831            0.000545778524           
       2.773721             0.00751706833            0.000549829148           
       2.776361             0.00752059808            0.000557545441           
       2.779001             0.00734600322            0.000570653168           
       2.781642             0.00631628809            0.000525249021           
       2.784282             0.00680942137            0.000554335668           
       2.786923             0.00730592266            0.000579245127           
       2.789563             0.00662777873            0.000531359081           
       2.792203             0.00780830804            0.000550954569           
       2.794844             0.00797694853            0.000610323083           
       2.797484             0.00697225054            0.000538502384           
       2.800125             0.00731654468             0.00058004752           
       2.802765             0.00655799043            0.000539708929           
       2.805405             0.00616109501            0.000524892785           
       2.808046             0.00796236803            0.000607199119           
       2.810686             0.00680450986            0.000515785329           
       2.813326             0.00619741213            0.000511300153           
       2.815967             0.00650933958            0.000538908648           
       2.818607             0.00652887176            0.000515037573           
       2.821248              0.0072787709            0.000532522053           
       2.823888             0.00792558694            0.000576809291           
       2.826528             0.00706791401            0.000527520847           
       2.829169             0.00737064496            0.000564257755           
       2.831809             0.00651505665            0.000537714099           
       2.834449             0.00660683778            0.000544910436           
       2.837090             0.00696262704            0.000540282234           
       2.839730             0.00801414392             0.00057681571           
       2.842371             0.00693951719            0.000537526008           
       2.845011             0.00743586222            0.000560852363           
       2.847651             0.00756335427            0.000566334685           
       2.850292             0.00670284803             0.00053837771           
       2.852932                0.00707823             0.00056530495           
       2.855573             0.00564735562            0.000489809698           
       2.858213             0.00585720909            0.000523829116           
       2.860853             0.00701018625            0.000533088442           
       2.863494             0.00645841358            0.000529771995           
       2.866134             0.00711769363            0.000578054011           
       2.868774             0.00598114176            0.000520779367           
       2.871415             0.00626500812            0.000541296432           
       2.874055             0.00719310562            0.000554413714           
       2.876696             0.00690272466            0.000557798078           
       2.879336             0.00733757154             0.00055428525           
       2.881976              0.0082464061            0.000606079663           
       2.884617             0.00741481546            0.000566267908           
       2.887257             0.00830082633            0.000602238218           
       2.889897             0.00733060635            0.000554301595           
       2.892538              0.0075079339            0.000614540101           
       2.895178             0.00657244564            0.000519457038           
       2.897819             0.00584168042            0.000499569469           
       2.900459             0.00628324373            0.000508027579           
       2.903099             0.00719665344            0.000538136223           
       2.905740             0.00681646558            0.000537278945           
       2.908380             0.00649992902             0.00053061714           
       2.911021             0.00620653439            0.000526933357           
       2.913661             0.00619852749            0.000526435591           
       2.916301             0.00725932541            0.000570247084           
       2.918942              0.0062242275            0.000505072601           
       2.921582             0.00788751853            0.000594884374           
       2.924222             0.00694426839            0.000540770739           
       2.926863               0.006729265            0.000554486725           
       2.929503             0.00739238561            0.000588050572           
       2.932144             0.00701972166            0.000550080034           
       2.934784             0.00550530379            0.000479155377           
       2.937424             0.00698864913            0.000545404131           
       2.940065             0.00678593554            0.000512663067           
       2.942705             0.00813024376            0.000560445966           
       2.945346             0.00665854299            0.000538258047           
       2.947986              0.0062976828            0.000533757658           
       2.950626             0.00644391655            0.000536879152           
       2.953267             0.00611101233            0.000514379701           
       2.955907             0.00778478364            0.000602255935           
       2.958547             0.00655984735              0.0005219156           
       2.961188             0.00650873703            0.000542378327           
       2.963828             0.00753441762            0.000570820742           
       2.966469             0.00712852008            0.000544680797           
       2.969109             0.00810207111            0.000589288455           
       2.971749             0.00652084524            0.000525368573           
       2.974390             0.00732772885            0.000547280887           
       2.977030             0.00727096602            0.000557340353           
       2.979670             0.00872180831            0.000593749541           
       2.982311             0.00936880686             0.00063780862           
       2.984951             0.00774238813            0.000551450332           
       2.987592             0.00784505772            0.000566212689           
       2.990232             0.00688620057            0.000551696465           
       2.992872             0.00822090681            0.000567799593           
       2.995513             0.00799598428            0.000547843073           
       2.998153              0.0120228065            0.000683060575           
       3.000794              0.0130328098            0.000688844202           
       3.003434              0.0113542908            0.000643927869           
       3.006074              0.0325578377             0.00107511493           
       3.008715               0.102491263             0.00184136104           
       3.011355               0.225599671             0.00263443386           
       3.013995               0.138193531              0.0020674829           
       3.016636              0.0857391679             0.00159468712           
       3.019276               0.142213204             0.00201883275           
       3.021917               0.507129627             0.00366573497           
       3.024557                1.36017522             0.00590240463           
       3.027197                1.12770781             0.00523975539           
       3.029838               0.585165094             0.00382797351           
       3.032478               0.261052093             0.00255937937           
       3.035118              0.0676897313             0.00132074889           
       3.037759              0.0774934447             0.00141133674           
       3.040399               0.108668947             0.00172397375           
       3.043040               0.419676261             0.00342946257           
       3.045680               0.389768622             0.00310954222           
       3.048320               0.109580522             0.00168463907           
       3.050961               0.119124859             0.00178742209           
       3.053601              0.0911111295             0.00150554103           
       3.056242              0.0717700454             0.00142068746           
       3.058882              0.0632424372             0.00143057542           
       3.061522              0.0484169581             0.00122808094           
       3.064163              0.0608331141             0.00135923557           
       3.066803               0.123205996             0.00203648016           
       3.069443               0.111255499             0.00202471098           
       3.072084              0.0392093095             0.00117040676           
       3.074724              0.0394109595             0.00131043386           
       3.077365              0.0753274084             0.00187541204           
       3.080005              0.0130164024            0.000784006476           
       3.082645              0.0124306888            0.000804873227           
       3.085286              0.0145475898            0.000877583392           
       3.087926             0.00990002325            0.000718374382           
       3.090566              0.0132392555            0.000813963718           
       3.093207              0.0123967207            0.000819618869           
       3.095847             0.00771256815            0.000619645382           
       3.098488             0.00881521757            0.000734555719           
       3.101128             0.00955453887            0.000769656839           
       3.103768              0.0100238902            0.000773502928           
       3.106409             0.00851192061            0.000758593297           
       3.109049             0.00914296997            0.000754487327           
       3.111690             0.00935960603            0.000750268785           
       3.114330             0.00976540232            0.000782663604           
       3.116970             0.00782926482            0.000706174388           
       3.119611              0.0118841513            0.000926092381           
       3.122251              0.0165262228             0.00114235911           
       3.124891              0.0353074067             0.00168529279           
       3.127532              0.0245590864             0.00137504418           
       3.130172              0.0155467268             0.00111293623           
       3.132813             0.00913872141            0.000840028502           
       3.135453             0.00637346851            0.000695740111           
       3.138093             0.00658200219            0.000766092532           
       3.140734             0.00583644675            0.000665547564           
       3.143374             0.00668715023            0.000753396692           
       3.146014             0.00737061994            0.000851505796           
       3.148655             0.00773192943            0.000810722446           
       3.151295             0.00724221723             0.00083614422           
       3.153936             0.00664730712            0.000773805583           
       3.156576             0.00605488739            0.000728474221           
       3.159216             0.00663292938             0.00076626798           
       3.161857             0.00656314195            0.000759124138           
       3.164497              0.0063931464            0.000787223155           
       3.167138             0.00941303354            0.000986979779           
       3.169778             0.00619486661            0.000787476541           
       3.172418             0.00656377737            0.000802340045           
       3.175059              0.0071773988            0.000743814371           
       3.177699             0.00647207891            0.000747952604           
       3.180339             0.00754025309            0.000864979637           
       3.182980             0.00603610869            0.000800146123           
       3.185620             0.00737672193            0.000900839082           
       3.188261             0.00705301818            0.000896571276           
       3.190901             0.00711108792            0.000827972942           
       3.193541             0.00541658401            0.000759300893           
       3.196182             0.00600442418            0.000833133034           
       3.198822             0.00588549591            0.000825117397           
       3.201463             0.00624334865            0.000835190449           
       3.204103             0.00573270958            0.000795437983           
       3.206743             0.00663022651            0.000855361645           
       3.209384             0.00694201483            0.000945624703           
       3.212024             0.00546284898            0.000782073686           
       3.214664             0.00505372565            0.000855379405           
       3.217305             0.00561765776            0.000857263387           
       3.219945               0.005949287            0.000908015778           
       3.222586              0.0051327621            0.000803329863           
       3.225226             0.00587916176            0.000953767192           
       3.227866             0.00515994862            0.000816674104           
       3.230507              0.0068008512            0.000971902713           
       3.233147             0.00649545994            0.000957500249           
       3.235787              0.0060440907            0.000945222938           
       3.238428             0.00705689826             0.00110216869           
       3.241068              0.0084241508             0.00112600132           
       3.243709             0.00465379579            0.000864662472           
       3.246349             0.00655695295            0.000935610478           
       3.248989             0.00485184407            0.000950310355           
       3.251630             0.00500540035            0.000929491536           
       3.254270             0.00508846231            0.000837577656           
       3.256911             0.00523521597            0.000926975013           
       3.259551               0.004745907            0.000950189772           
       3.262191             0.00633658822             0.00112149055           
       3.264832             0.00713886607              0.0012437598           
       3.267472             0.00455132386            0.000931629831           
       3.270112             0.00300304511             0.00083631099           
       3.272753             0.00487017466            0.000974841321           
       3.275393              0.0054777466             0.00105489955           
       3.278034             0.00383338775             0.00088297001           
       3.280674              0.0067110024              0.0012677499           
       3.283314             0.00651217385             0.00111689539           
       3.285955             0.00653908207             0.00115476918           
       3.288595             0.00608121361             0.00123892939           
       3.291235              0.0045159481             0.00109752747           
       3.293876             0.00437550429             0.00109585059           
       3.296516             0.00657233032             0.00128937237           
       3.299157              0.0066462471             0.00128031066           
       3.301797             0.00801339941             0.00160361892           
       3.304437              0.0060483491             0.00120703561           
       3.307078             0.00494911857             0.00120274726           
       3.309718             0.00526694926             0.00128069382           
       3.312359             0.00436958526             0.00116678009           
       3.314999             0.00755258409             0.00151031838           
       3.317639              0.0072008759             0.00141040085           
       3.320280             0.00466593512             0.00120708212           
       3.322920             0.00711421315             0.00151558281           
       3.325560             0.00384041827             0.00111429568           
       3.328201             0.00653547077             0.00130915619           
       3.330841             0.00896908972             0.00186655202           
       3.333482             0.00557304016             0.00139075074           
       3.336122             0.00379298616             0.00114787192           
       3.338762             0.00643726977             0.00172740382           
       3.341403             0.00548649605             0.00152384022           
       3.344043             0.00546436324             0.00146005837           
       3.346683             0.00649592006             0.00162521881           
       3.349324             0.00306616268             0.00125540115           
       3.351964             0.00399596635             0.00151551728           
       3.354605              0.0045393383             0.00184731293           
       3.357245             0.00240276955             0.00121243374           
       3.359885             0.00470237286             0.00135751944           
       3.362526              0.0085305316             0.00228651369           
       3.365166             0.00328467788             0.00133823685           
       3.367807              0.0026473483             0.00153756376           
       3.370447             0.00614883333              0.0019437821           
       3.373087             0.00348384402             0.00156461621           
       3.375728             0.00532649797             0.00218342654           
       3.378368             0.00800489591             0.00397251408           
       3.381008           -2.63439203e-05                         0           
       3.383649             0.00495662919             0.00186957724           
       3.386289             0.00990927829             0.00312861232           
       3.388930              0.0150458901             0.00609793787           
       3.391570             0.00609136393             0.00274469325           
       3.394210             0.00195389711             0.00196724004           
       3.396851             0.00497057944             0.00350981169           
       3.399491             0.00246213331             0.00247091712           
       3.402131             0.00490174697             0.00493258219           
       3.404772              0.0194066938              0.0138833554           
       3.407412                       nan                       nan           
       3.410053           -2.65957414e-05                         0           
       3.412693                       nan                       nan           
       3.415333           -2.66465654e-05                         0           
