################################################################################
# EDF_DataBlockID                     0.Image.Psd
# EDF_BinarySize                      2105344
# EDF_HeaderSize                      2560
# ByteOrder                           LowByteFirst
# DataType                            FloatValue
# Dim_1                               512
# Dim_2                               1028
# Image                               0
# HeaderID                            EH:000000:000000:000000
# Size                                2105344
# Center_1                            304.9000
# Center_2                            588.7000
# Comment                             Xenocs_Cell_Window - 20251028_20perc_iodine_1.23mg
# DDummy                              0.6
# Date                                2025-10-30T13:13:33
# Delta                               21.910000
# Dummy                               -1.5
# ExposureTime                        360
# Gamma                               15.360000
# Intensity1                          8.47794e-10
# PSize_1                             7.5e-05
# PSize_2                             7.5e-05
# Pressure                            0.0326223
# SampleDistance                      0.115750
# SampleEnvKind                       large
# SampleEnvPN                         ElectroChemical cell
# SampleEnvSN                         1141
# Thickness                           0
# Wavelength                          1.541891e-10
# Wavelength                          1.54189e-10
# aux                                 0
# aux_dial                            0.002375
# beamx                               588.434
# beamx_dial                          588.434
# beamz                               657.808
# beamz_dial                          657.808
# det0x                               0
# det0x_dial                          6.36945
# det0xvd                             0
# det0xvd_dial                        0
# det0y                               450.002
# det0y_dial                          481.635
# det0z                               0
# det0z_dial                          1.23302
# det0zvd                             0
# det0zvd_dial                        0
# mag                                 1.818
# mag_dial                            1.818
# om                                  0.2499
# om_dial                             -0.610199
# phi                                 -0.0120535
# phi_dial                            0
# ry                                  0.599993
# ry_dial                             0.599993
# s1bot                               0.8
# s1bot_dial                          -1.66094
# s1hl                                0.8
# s1hl_dial                           -0.608437
# s1hr                                0.8
# s1hr_dial                           0.970938
# s1top                               0.8
# s1top_dial                          -0.461562
# s2bot                               0.45
# s2bot_dial                          1.36109
# s2hl                                0.45
# s2hl_dial                           -0.83375
# s2hr                                0.45
# s2hr_dial                           -0.118594
# s2top                               0.45
# s2top_dial                          1.44734
# w2theta                             32
# w2theta_dial                        32
# waxsch                              19.2605
# waxsch_dial                         -32.7355
# waxsh                               137.085
# waxsh_dial                          -43.5338
# waxsth                              26.0607
# waxsth_dial                         -19.4086
# waxsz                               67.0407
# waxsz_dial                          -23.7954
# wind                                65.9854
# wind_dial                           66.0041
# wpsi                                124
# wpsi_dial                           124
# wstod                               115
# wstod_dial                          115
# x                                   0
# x_dial                              1.00969
# z                                   0
# z_dial                              13.3172
# CountCutoff                         6807993
# DetectorModel                       Dectris EIGER2 Si 500K, S/N E-01-0554
# ThresholdSetting                    4023.88989258
# Saturation                          0
# FlatField                           Corrected
# BackgroundReductionExtra            0.02
# BackgroundCorrectionConstant        0.0026712
# Detector                            0
# Monitor                             0
# Pil_Roi0                            0
# SumForIntensity1                    3.05206e+08
# TransmittedFlux                     847794
# det                                 0
# mon                                 0
# pilai0                              3.05206e+08
# pilai1                              777935
# pilct0                              5.28397e+08
# pilct1                              777935
# pilroi0                             0
# pilroi1                             0
# sec                                 1
# title                               20251028_20perc_iodine_1.23mg_1_00426.edf
# usaxs0                              0
# Operation                           Azimuthal average I(q)
# Error_model                         ErrorModel.poisson
# Geometrical_correction              True
# Transmission_correction             True
# Thickness_correction                False
# Binning mode                        Uniform
# Binning factor                      1.0
# Psi                                 0.0
# Omega                               0.2499
# MaskInvalidPixels                   True
# DetectorEdge                        3
# MaskFiles                           ['WAXS_corrected.edf']
################################################################################
    q(A⁻¹)                Intensity(a.u.)            Sigma_I(a.u.)            
       0.693100              0.0125248968             0.00749300421           
       0.695741              0.0112326359             0.00579051858           
       0.698381             0.00863937208             0.00622057549           
       0.701021             0.00889114498              0.0089211431           
       0.703662             0.00574370625             0.00413882662           
       0.706302             0.00860978329             0.00392314525           
       0.708942              0.0143832357             0.00654466815           
       0.711583              0.0088558165             0.00444692117           
       0.714223             0.00294684419             0.00296158112           
       0.716864              0.0113917437             0.00380987679           
       0.719504              0.0147849172             0.00468374383           
       0.722144             0.00508885755             0.00254472379           
       0.724785             0.00727327836             0.00242676103           
       0.727425             0.00441464982             0.00255770283           
       0.730065             0.00514934388             0.00195397552           
       0.732706             0.00822726877             0.00207405256           
       0.735346             0.00622719923             0.00235213588           
       0.737987             0.00794451072             0.00187735618           
       0.740627             0.00586677569             0.00240712877           
       0.743267             0.00568997795             0.00158780452           
       0.745908             0.00785353707             0.00202387234           
       0.748548             0.00750209621             0.00182329194           
       0.751189             0.00321461791              0.0016082224           
       0.753829             0.00543535464             0.00192229695           
       0.756469             0.00835232647             0.00192151426           
       0.759110             0.00833190421             0.00202247215           
       0.761750             0.00497880281             0.00138239942           
       0.764390             0.00711943343             0.00173021177           
       0.767031             0.00629964969             0.00140939883           
       0.769671             0.00688687546             0.00183823682           
       0.772312             0.00566484907             0.00126921697           
       0.774952             0.00775425799              0.0020052639           
       0.777592             0.00712430505             0.00140000587           
       0.780233             0.00640415915             0.00160145018           
       0.782873             0.00733031701             0.00163865069           
       0.785513             0.00583006521             0.00156230379           
       0.788154              0.0102090983             0.00172944336           
       0.790794              0.0083049972             0.00186483938           
       0.793435             0.00773569746             0.00161685711           
       0.796075             0.00563964029             0.00132988403           
       0.798715             0.00873379808             0.00195570067           
       0.801356               0.007725595             0.00158307939           
       0.803996             0.00670735758             0.00150385226           
       0.806637             0.00723635725             0.00124308739           
       0.809277             0.00601127427             0.00122632694           
       0.811917             0.00699943409             0.00123706383           
       0.814558             0.00751127199             0.00133188659           
       0.817198             0.00595103461             0.00112629402           
       0.819838             0.00632514344             0.00117517608           
       0.822479             0.00572764343             0.00131318175           
       0.825119              0.0101811554             0.00149014698           
       0.827760             0.00762965501             0.00130669991           
       0.830400             0.00907309044             0.00134114655           
       0.833040             0.00607630797             0.00114987906           
       0.835681              0.0073063586             0.00143343451           
       0.838321             0.00851753741             0.00129902679           
       0.840961              0.0063348194             0.00122060232           
       0.843602              0.0079015057             0.00125011706           
       0.846242             0.00730999343             0.00120223527           
       0.848883              0.0072422113             0.00122459743           
       0.851523             0.00667456198             0.00116102241           
       0.854163             0.00661520325             0.00122919274           
       0.856804             0.00607916809             0.00105948888           
       0.859444             0.00582391201             0.00101606659           
       0.862085             0.00711795951             0.00117075107           
       0.864725             0.00870937017             0.00132533061           
       0.867365             0.00740971927             0.00113356814           
       0.870006             0.00768840184             0.00110032929           
       0.872646             0.00919043309             0.00126153232           
       0.875286             0.00767647367             0.00110921129           
       0.877927             0.00744872544             0.00105434007           
       0.880567             0.00577533003             0.00096182576           
       0.883208             0.00673995435             0.00102926129           
       0.885848             0.00777770886              0.0011480115           
       0.888488             0.00740537998             0.00105067484           
       0.891129             0.00609372115            0.000978629111           
       0.893769             0.00691104197            0.000997406853           
       0.896410             0.00674004762            0.000918356342           
       0.899050             0.00725252793             0.00104763449           
       0.901690             0.00627231083             0.00106126199           
       0.904331             0.00833653905             0.00108469448           
       0.906971             0.00766056106             0.00110616322           
       0.909611             0.00924527787             0.00110622387           
       0.912252             0.00888404069             0.00112006822           
       0.914892             0.00655741373              0.0010515767           
       0.917533             0.00704805393             0.00103133256           
       0.920173             0.00701883766            0.000954888526           
       0.922813             0.00787007091              0.0010610729           
       0.925454             0.00892393447             0.00101742994           
       0.928094             0.00775784094              0.0010127423           
       0.930734             0.00687376834             0.00102632429           
       0.933375               0.008393491             0.00112296951           
       0.936015             0.00779607577            0.000982930492           
       0.938656             0.00842436287              0.0010961182           
       0.941296             0.00773518057            0.000951884505           
       0.943936             0.00696458903            0.000885753801           
       0.946577              0.0073213654            0.000902153824           
       0.949217             0.00720505399            0.000822996031           
       0.951858             0.00668887417            0.000830079184           
       0.954498             0.00856889877             0.00108747652           
       0.957138             0.00793762347            0.000991560256           
       0.959779             0.00831140859             0.00100022466           
       0.962419             0.00782301016            0.000963937228           
       0.965059             0.00789200969             0.00101827087           
       0.967700             0.00688219805            0.000973906378           
       0.970340              0.0076364253            0.000907806697           
       0.972981             0.00821026107            0.000857612156           
       0.975621             0.00741888826            0.000867267653           
       0.978261             0.00795335415            0.000853223648           
       0.980902             0.00888284361              0.0010788432           
       0.983542             0.00779955281            0.000895236331           
       0.986182             0.00893200816            0.000940584275           
       0.988823             0.00642806565            0.000774788766           
       0.991463             0.00711049387            0.000869390713           
       0.994104             0.00869988126            0.000938114622           
       0.996744               0.007469594             0.00088663426           
       0.999384             0.00714675566            0.000775622629           
       1.002025             0.00880404727            0.000960843797           
       1.004665             0.00815723063            0.000845221197           
       1.007306              0.0089221055            0.000879435552           
       1.009946             0.00874516622            0.000887963214           
       1.012586              0.0092359122            0.000888758024           
       1.015227             0.00898660263            0.000941829446           
       1.017867             0.00848787694            0.000879688007           
       1.020507             0.00822473284            0.000838784881           
       1.023148             0.00736468114            0.000856444289           
       1.025788             0.00803857321            0.000820433939           
       1.028429             0.00864388282            0.000891314106           
       1.031069             0.00716092985            0.000763428587           
       1.033709             0.00918051992            0.000918864807           
       1.036350             0.00702614842            0.000721969891           
       1.038990             0.00844939805            0.000806272099           
       1.041630              0.0092136125            0.000878157135           
       1.044271             0.00770036905            0.000755014095           
       1.046911             0.00795692437            0.000807297835           
       1.049552              0.0085184791            0.000877588071           
       1.052192             0.00836272895            0.000793989505           
       1.054832             0.00743724922            0.000755578811           
       1.057473             0.00783341152            0.000764421663           
       1.060113             0.00923106183            0.000809299116           
       1.062754             0.00814631911             0.00077621528           
       1.065394             0.00692389519            0.000756585314           
       1.068034             0.00820242971            0.000749255379           
       1.070675             0.00715544984            0.000729982661           
       1.073315             0.00837498561            0.000801063522           
       1.075955             0.00798655717            0.000738504282           
       1.078596              0.0075596499            0.000763618182           
       1.081236             0.00911815569            0.000803058722           
       1.083877             0.00722158986            0.000708266558           
       1.086517             0.00853338396            0.000825570752           
       1.089157             0.00867630612            0.000863765964           
       1.091798              0.0089780855            0.000770335111           
       1.094438             0.00749521949            0.000701578097           
       1.097078             0.00918875417             0.00074503776           
       1.099719             0.00785516828             0.00074510183           
       1.102359              0.0102436809            0.000796854872           
       1.105000              0.0102197708            0.000889998528           
       1.107640             0.00950011139            0.000820473989           
       1.110280              0.0080622743            0.000689645372           
       1.112921             0.00926524231            0.000794176696           
       1.115561             0.00794596867            0.000698998168           
       1.118202             0.00845017099            0.000721513383           
       1.120842             0.00903617686            0.000784168505           
       1.123482             0.00972159554            0.000809813141           
       1.126123             0.00866216099            0.000733202012           
       1.128763             0.00810303689            0.000714006112           
       1.131403             0.00846772965            0.000703318168           
       1.134044             0.00830949023             0.00071692205           
       1.136684             0.00878893188            0.000786105143           
       1.139325             0.00835600317            0.000706098494           
       1.141965              0.0085194235            0.000717683088           
       1.144605             0.00912614834            0.000708261142           
       1.147246             0.00948118788             0.00073880899           
       1.149886              0.0102440614            0.000765230755           
       1.152527              0.0091152242            0.000732335419           
       1.155167             0.00906467693            0.000694628493           
       1.157807             0.00942683249            0.000759497384           
       1.160448             0.00923642102             0.00073413999           
       1.163088              0.0103010767            0.000739519639           
       1.165728             0.00844621816            0.000687529134           
       1.168369             0.00951550467            0.000736494857           
       1.171009             0.00932928138            0.000707719728           
       1.173650              0.0102811009             0.00076243933           
       1.176290             0.00825368839            0.000667580718           
       1.178930             0.00886206812            0.000677975052           
       1.181571             0.00986830331            0.000729617685           
       1.184211             0.00936719663            0.000713371948           
       1.186851             0.00867122385            0.000671043419           
       1.189492             0.00973346951            0.000706175526           
       1.192132             0.00901556381            0.000672008764           
       1.194773              0.0106161565            0.000732412182           
       1.197413              0.0102079769            0.000688131484           
       1.200053               0.010336048            0.000710028449           
       1.202694             0.00876828657            0.000621885232           
       1.205334             0.00966674489            0.000703696926           
       1.207975              0.0107167375               0.000707238           
       1.210615               0.010458712            0.000770754022           
       1.213255             0.00990436466            0.000671652189           
       1.215896             0.00976717244            0.000679069288           
       1.218536              0.0105109204            0.000677358609           
       1.221176              0.0102193519            0.000726141849           
       1.223817             0.00962481721            0.000661516533           
       1.226457              0.0105343029            0.000706008304           
       1.229098             0.00913634525            0.000657464035           
       1.231738             0.00917146322            0.000661968405           
       1.234378              0.0100279015            0.000650413031           
       1.237019             0.00994231968            0.000667378284           
       1.239659               0.008792158            0.000622122966           
       1.242299             0.00992576883            0.000652615598           
       1.244940              0.0101865025            0.000642991936           
       1.247580             0.00987005668            0.000652281796           
       1.250221              0.0100831759            0.000655218348           
       1.252861              0.0104939574            0.000636350176           
       1.255501              0.0107863275            0.000700513813           
       1.258142              0.0101973293            0.000640033695           
       1.260782              0.0106524702            0.000668315449           
       1.263423               0.010603453            0.000640696372           
       1.266063              0.0102341369             0.00064515778           
       1.268703              0.0104598261            0.000646820425           
       1.271344             0.00969339801            0.000643775072           
       1.273984              0.0105564821            0.000648849791           
       1.276624              0.0101583443            0.000624538945           
       1.279265             0.00954201493            0.000615348317           
       1.281905              0.0104695739            0.000647423822           
       1.284546              0.0115520745            0.000657350153           
       1.287186              0.0105799967            0.000617199442           
       1.289826                0.01035926            0.000643656257           
       1.292467             0.00906231244            0.000588757609           
       1.295107              0.0108253516            0.000637092284           
       1.297747              0.0108265396            0.000609677854           
       1.300388             0.00969567115            0.000628957525           
       1.303028              0.0106004182            0.000627830793           
       1.305669              0.0109429912            0.000653083776           
       1.308309              0.0108921245            0.000645147757           
       1.310949              0.0112116247            0.000653883679           
       1.313590              0.0107901519            0.000621423593           
       1.316230              0.0115178043            0.000685140656           
       1.318871             0.00986849468            0.000621112607           
       1.321511             0.00964724408            0.000602727791           
       1.324151              0.0103100518            0.000604616594           
       1.326792              0.0106564848            0.000618490937           
       1.329432              0.0103539842             0.00060534716           
       1.332072              0.0110690434            0.000616573388           
       1.334713              0.0108486456            0.000629997682           
       1.337353              0.0102995405            0.000588691487           
       1.339994              0.0113885432            0.000649612143           
       1.342634              0.0104476107            0.000596648706           
       1.345274              0.0115235887            0.000648492566           
       1.347915              0.0114082838            0.000627421784           
       1.350555              0.0109314547             0.00062492621           
       1.353195              0.0100319039            0.000601601981           
       1.355836              0.0124651671            0.000660147933           
       1.358476              0.0109392141            0.000600582132           
       1.361117              0.0114621774             0.00061561419           
       1.363757              0.0114956676            0.000635337827           
       1.366397             0.00966674496             0.00056497927           
       1.369038              0.0118550955            0.000631899324           
       1.371678               0.011097886            0.000605995993           
       1.374319              0.0114442124            0.000610079927           
       1.376959              0.0108820948            0.000588925587           
       1.379599              0.0108617332            0.000630559135           
       1.382240              0.0106979357            0.000588145451           
       1.384880              0.0107670066             0.00062498756           
       1.387520              0.0112323292            0.000606260596           
       1.390161               0.011012015            0.000570126988           
       1.392801              0.0115202197            0.000607569413           
       1.395442              0.0110306346            0.000602638811           
       1.398082              0.0117303296             0.00058196857           
       1.400722              0.0121860927            0.000621328353           
       1.403363              0.0129254335            0.000673571539           
       1.406003              0.0107219744            0.000574132426           
       1.408644              0.0115000096             0.00062288057           
       1.411284               0.011243815            0.000583205775           
       1.413924              0.0101416756            0.000551831888           
       1.416565              0.0104854569            0.000558902816           
       1.419205               0.010461487            0.000582358038           
       1.421845              0.0116388236              0.0006138932           
       1.424486              0.0109472284            0.000572291933           
       1.427126              0.0103883917            0.000579127781           
       1.429767              0.0112687301             0.00056750703           
       1.432407              0.0129838277            0.000637505678           
       1.435047              0.0109167262            0.000548998612           
       1.437688              0.0116629724            0.000575937106           
       1.440328                0.01116145            0.000575031346           
       1.442968              0.0105658422            0.000572013761           
       1.445609              0.0111650362            0.000569356449           
       1.448249              0.0109330009            0.000577674254           
       1.450890              0.0117523678            0.000595020725           
       1.453530              0.0109309633            0.000600362848           
       1.456170               0.010298787            0.000565566485           
       1.458811              0.0119114538            0.000581609392           
       1.461451              0.0107486704            0.000553941838           
       1.464092              0.0112713284            0.000570958373           
       1.466732              0.0117168111            0.000577129771           
       1.469372              0.0105925555            0.000535900908           
       1.472013              0.0113475406            0.000598223113           
       1.474653              0.0106524152            0.000570669423           
       1.477293              0.0111188467            0.000595317683           
       1.479934              0.0114063125            0.000575353831           
       1.482574               0.010697545            0.000538995666           
       1.485215             0.00990276795            0.000528245664           
       1.487855              0.0114032261            0.000574332127           
       1.490495              0.0117880404            0.000581791843           
       1.493136             0.00984691905            0.000524448694           
       1.495776              0.0103458595            0.000535123607           
       1.498416              0.0108880495            0.000566927151           
       1.501057               0.011538063            0.000570742768           
       1.503697             0.00997427462            0.000518802729           
       1.506338              0.0105326011            0.000542867512           
       1.508978              0.0100636794            0.000525426906           
       1.511618               0.010010038            0.000558083772           
       1.514259              0.0104488855            0.000550487831           
       1.516899              0.0112074523            0.000555107776           
       1.519540              0.0112167988            0.000564294452           
       1.522180              0.0100942363            0.000540015771           
       1.524820              0.0106705936            0.000552103556           
       1.527461              0.0103881849            0.000547442707           
       1.530101              0.0103796562             0.00054174517           
       1.532741             0.00989551033            0.000525890041           
       1.535382              0.0100672256            0.000538972587           
       1.538022              0.0104773834            0.000517980609           
       1.540663              0.0106613216            0.000561989182           
       1.543303              0.0102059281            0.000510549935           
       1.545943               0.011086573            0.000563211095           
       1.548584              0.0113523855            0.000580153367           
       1.551224              0.0102840345            0.000510542994           
       1.553864              0.0105116018            0.000545420323           
       1.556505               0.010713645            0.000531929723           
       1.559145              0.0106826689            0.000537666851           
       1.561786              0.0113260266            0.000554046878           
       1.564426              0.0103291252             0.00051264485           
       1.567066               0.010705307            0.000546847336           
       1.569707              0.0100104402            0.000519303098           
       1.572347              0.0102896403            0.000543922184           
       1.574988             0.00955627044            0.000498931984           
       1.577628             0.00950837477            0.000518957631           
       1.580268             0.00929071192            0.000497026215           
       1.582909             0.00973628612            0.000539313181           
       1.585549             0.00859338156            0.000491961766           
       1.588189             0.00939759899            0.000503238836           
       1.590830             0.00886572965            0.000488177218           
       1.593470             0.00995688435            0.000537831889           
       1.596111             0.00912972282            0.000502807379           
       1.598751             0.00990859851            0.000507560383           
       1.601391             0.00878867863             0.00048856343           
       1.604032             0.00791462536             0.00047332533           
       1.606672             0.00937748332            0.000500579382           
       1.609312             0.00959530408            0.000528580362           
       1.611953              0.0100932682            0.000530500816           
       1.614593             0.00871795871            0.000483628068           
       1.617234             0.00836053143            0.000490838582           
       1.619874             0.00854896688            0.000494378524           
       1.622514             0.00836774798            0.000482438411           
       1.625155             0.00937679427            0.000513715679           
       1.627795             0.00916805827            0.000495519541           
       1.630436             0.00956611872             0.00050351951           
       1.633076             0.00859354431            0.000483496681           
       1.635716             0.00907542437             0.00048913691           
       1.638357             0.00866374496            0.000479173753           
       1.640997             0.00964677685            0.000520944728           
       1.643637             0.00883771347            0.000485214349           
       1.646278             0.00987768772            0.000529086784           
       1.648918             0.00894101631            0.000504749417           
       1.651559             0.00902620554            0.000511084542           
       1.654199             0.00934408934            0.000505751829           
       1.656839             0.00960243489            0.000512874643           
       1.659480             0.00923381664            0.000521820315           
       1.662120             0.00915053975            0.000489247553           
       1.664761             0.00903005138            0.000504845001           
       1.667401             0.00896778016            0.000480857106           
       1.670041             0.00937949638            0.000499269865           
       1.672682             0.00927547588            0.000494452971           
       1.675322              0.0077485172            0.000449018723           
       1.677962             0.00916206256            0.000482874566           
       1.680603             0.00857646678            0.000468625902           
       1.683243             0.00942496966            0.000512538972           
       1.685884             0.00898822502            0.000504218999           
       1.688524             0.00883869787            0.000490342132           
       1.691164             0.00987860945            0.000518503314           
       1.693805             0.00879803786            0.000494699446           
       1.696445             0.00882449066            0.000498316508           
       1.699085              0.0088927113            0.000483476934           
       1.701726             0.00887912207             0.00046538963           
       1.704366             0.00930051312            0.000501774263           
       1.707007              0.0085646211            0.000470780626           
       1.709647             0.00865386654            0.000478571287           
       1.712287             0.00812450566            0.000467739302           
       1.714928             0.00854350762            0.000483516162           
       1.717568             0.00810695987            0.000443684885           
       1.720209             0.00756067838            0.000448798377           
       1.722849             0.00889233329            0.000484217243           
       1.725489             0.00828981483            0.000467917534           
       1.728130             0.00842941548            0.000501434713           
       1.730770               0.008955815            0.000490872778           
       1.733410             0.00937545472            0.000494346712           
       1.736051             0.00836109582            0.000470088358           
       1.738691             0.00910885425            0.000480712709           
       1.741332             0.00830044112            0.000472303591           
       1.743972             0.00878997972             0.00050191027           
       1.746612             0.00816609309             0.00046454293           
       1.749253             0.00881860968            0.000492279533           
       1.751893             0.00844808715             0.00047829006           
       1.754533             0.00864389958            0.000483349474           
       1.757174             0.00813246511            0.000464441897           
       1.759814             0.00887056408            0.000477707917           
       1.762455             0.00863765328            0.000480050513           
       1.765095             0.00919053851             0.00047369599           
       1.767735             0.00833306902            0.000464972413           
       1.770376              0.0085980172            0.000473551552           
       1.773016             0.00786930291            0.000450005097           
       1.775657             0.00891297585            0.000472026487           
       1.778297             0.00858856396             0.00045936662           
       1.780937             0.00862226187            0.000485811565           
       1.783578             0.00897498714            0.000483255595           
       1.786218             0.00876383686            0.000498362207           
       1.788858              0.0088218877            0.000474888886           
       1.791499             0.00875260219            0.000467707908           
       1.794139              0.0101816881            0.000500354867           
       1.796780             0.00949103386            0.000480757691           
       1.799420             0.00921805647            0.000471169816           
       1.802060              0.0091838142             0.00047409258           
       1.804701             0.00933049927            0.000458579766           
       1.807341             0.00931312384            0.000481418709           
       1.809981              0.0100986434            0.000502981879           
       1.812622             0.00760527723             0.00042863576           
       1.815262             0.00967478908            0.000493719664           
       1.817903             0.00870262061            0.000461319341           
       1.820543             0.00894603073            0.000475014573           
       1.823183             0.00879023183            0.000470601262           
       1.825824             0.00956021275            0.000468871164           
       1.828464             0.00847096708            0.000460129753           
       1.831105             0.00783322437            0.000430236919           
       1.833745             0.00879872975            0.000465720052           
       1.836385             0.00932562558            0.000493144808           
       1.839026             0.00917309297              0.0004875499           
       1.841666             0.00895000614            0.000479877211           
       1.844306             0.00915302155             0.00047204793           
       1.846947             0.00960803039            0.000487878141           
       1.849587             0.00836619315            0.000502715813           
       1.852228             0.00864336914            0.000462048537           
       1.854868             0.00967488609            0.000516389854           
       1.857508             0.00844682202            0.000477772227           
       1.860149             0.00846616018             0.00048700919           
       1.862789             0.00916394241            0.000489064874           
       1.865429             0.00847247477            0.000490870898           
       1.868070             0.00871405413            0.000491184853           
       1.870710             0.00807738897            0.000461998577           
       1.873351             0.00944221559            0.000505682647           
       1.875991             0.00831066605            0.000482158216           
       1.878631             0.00924839254            0.000498891842           
       1.881272             0.00888784727              0.0004857937           
       1.883912             0.00801496208            0.000480102199           
       1.886553             0.00857876783            0.000491148308           
       1.889193             0.00846501212            0.000487047467           
       1.891833             0.00845529067            0.000505527257           
       1.894474             0.00965043768            0.000535371165           
       1.897114             0.00911734478             0.00050355514           
       1.899754             0.00863707267             0.00049216357           
       1.902395             0.00928643108            0.000500351858           
       1.905035             0.00923633274            0.000528525044           
       1.907676             0.00875375158            0.000484948489           
       1.910316              0.0089148531            0.000502384725           
       1.912956              0.0087703773            0.000487334626           
       1.915597             0.00897685709            0.000495793401           
       1.918237             0.00844031918            0.000496496321           
       1.920878             0.00862060249            0.000499716756           
       1.923518             0.00909859496            0.000513601754           
       1.926158             0.00894794227            0.000502722612           
       1.928799             0.00816215955             0.00047458387           
       1.931439             0.00827379747            0.000490351096           
       1.934079             0.00937555067            0.000544150351           
       1.936720             0.00929850563            0.000502095282           
       1.939360              0.0083004459            0.000506101857           
       1.942001             0.00820324487            0.000461144257           
       1.944641             0.00911020316             0.00049554085           
       1.947281             0.00838389967             0.00047099554           
       1.949922             0.00769304678            0.000466021632           
       1.952562              0.0081219826             0.00049384669           
       1.955202              0.0088848762            0.000515889985           
       1.957843             0.00926242765            0.000513077187           
       1.960483             0.00890461255            0.000525958266           
       1.963124             0.00785825821            0.000483954486           
       1.965764             0.00912094436            0.000491683766           
       1.968404             0.00901356323            0.000484162703           
       1.971045             0.00881085122             0.00048804699           
       1.973685             0.00788574839            0.000484304767           
       1.976326             0.00809745216            0.000484017717           
       1.978966             0.00809868389            0.000488302518           
       1.981606             0.00747836321            0.000479015262           
       1.984247             0.00832361192              0.0005020388           
       1.986887             0.00817857642            0.000491684454           
       1.989527             0.00775195083            0.000473533461           
       1.992168             0.00855704233            0.000516214963           
       1.994808             0.00778039671            0.000490121755           
       1.997449             0.00800892155            0.000487055411           
       2.000089             0.00829511476            0.000493716106           
       2.002729             0.00831540372            0.000494615885           
       2.005370             0.00796775319            0.000478956565           
       2.008010             0.00823502766            0.000508174457           
       2.010650             0.00729010236            0.000481698969           
       2.013291             0.00787021481            0.000480199963           
       2.015931             0.00853418251            0.000496511039           
       2.018572             0.00838592575            0.000526432435           
       2.021212             0.00884958255             0.00053107362           
       2.023852             0.00750067223            0.000462745745           
       2.026493              0.0071257251            0.000471182645           
       2.029133             0.00747093915            0.000472752091           
       2.031774             0.00784659281             0.00050846336           
       2.034414             0.00727390553            0.000450460105           
       2.037054             0.00797571916            0.000483646642           
       2.039695             0.00802760404            0.000481552605           
       2.042335             0.00803841334            0.000500775684           
       2.044975             0.00803256407            0.000494522624           
       2.047616             0.00791501641            0.000489671489           
       2.050256             0.00841799751            0.000509769623           
       2.052897             0.00770450231            0.000496678561           
       2.055537              0.0071420783            0.000462168346           
       2.058177             0.00849221526            0.000493515374           
       2.060818             0.00810980051            0.000505221027           
       2.063458             0.00762300232            0.000510444438           
       2.066098             0.00762206514            0.000481490496           
       2.068739             0.00885042515            0.000526904851           
       2.071379              0.0083568154            0.000525353819           
       2.074020             0.00815470192            0.000507683484           
       2.076660             0.00631895851            0.000450514157           
       2.079300             0.00764806431            0.000507778456           
       2.081941             0.00703336847            0.000445853907           
       2.084581             0.00854156887            0.000518611292           
       2.087222             0.00804275208            0.000485327254           
       2.089862             0.00718014131            0.000499444876           
       2.092502             0.00708046996            0.000480768458           
       2.095143             0.00700182208             0.00049370034           
       2.097783              0.0076578722            0.000499876609           
       2.100423             0.00738464922            0.000473006273           
       2.103064             0.00776697132            0.000503352431           
       2.105704             0.00709860416            0.000478824409           
       2.108345             0.00856090773            0.000505187084           
       2.110985             0.00720678292            0.000495066715           
       2.113625             0.00726826057            0.000501512383           
       2.116266             0.00787019293            0.000529270173           
       2.118906               0.007918492            0.000494761363           
       2.121546             0.00814169596            0.000492107264           
       2.124187             0.00707457569            0.000481519714           
       2.126827              0.0082723099            0.000526498905           
       2.129468             0.00741627167            0.000499786831           
       2.132108             0.00698059391            0.000471755588           
       2.134748             0.00708198201             0.00047332564           
       2.137389              0.0075025746            0.000508247799           
       2.140029             0.00806884667            0.000471873685           
       2.142670             0.00800660398             0.00050235273           
       2.145310             0.00735156347            0.000468521111           
       2.147950             0.00787469358            0.000499098789           
       2.150591             0.00747301997            0.000481289536           
       2.153231             0.00743099462            0.000494017782           
       2.155871             0.00772331259            0.000486550517           
       2.158512             0.00744015402            0.000498287549           
       2.161152             0.00736585798            0.000480256422           
       2.163793             0.00714280611            0.000470799917           
       2.166433             0.00709978908            0.000482003911           
       2.169073             0.00745476237            0.000482910463           
       2.171714             0.00844361409            0.000510099793           
       2.174354             0.00729544032            0.000495444046           
       2.176995             0.00851117222            0.000532883516           
       2.179635             0.00686336668            0.000505666455           
       2.182275              0.0072712022            0.000491409608           
       2.184916             0.00703761018            0.000466951598           
       2.187556             0.00713481979            0.000465453111           
       2.190196             0.00693263521            0.000479451078           
       2.192837             0.00780401543            0.000505923457           
       2.195477             0.00789674428            0.000485195081           
       2.198118             0.00645805242            0.000450019274           
       2.200758             0.00819309583            0.000520027147           
       2.203398             0.00654928414            0.000467916544           
       2.206039             0.00733462031            0.000468642935           
       2.208679             0.00784629749            0.000495994731           
       2.211319              0.0070961808            0.000474410137           
       2.213960             0.00765998913            0.000499500451           
       2.216600             0.00788007819            0.000524092813           
       2.219241             0.00739882625            0.000485354964           
       2.221881             0.00773673412            0.000497334877           
       2.224521             0.00779056894            0.000505177622           
       2.227162             0.00755036828            0.000487371088           
       2.229802             0.00703043221            0.000485013021           
       2.232443             0.00687061801            0.000471906114           
       2.235083             0.00766880169            0.000513270913           
       2.237723             0.00787971827            0.000499285477           
       2.240364             0.00673946137            0.000473124769           
       2.243004             0.00695824172            0.000476905331           
       2.245644             0.00727601256            0.000492554817           
       2.248285             0.00731330887            0.000483923015           
       2.250925             0.00824874951             0.00051706312           
       2.253566             0.00747714249            0.000526291235           
       2.256206             0.00708337928            0.000502003583           
       2.258846             0.00675890347            0.000466478371           
       2.261487             0.00680947434            0.000491440577           
       2.264127             0.00665711516            0.000469285718           
       2.266767             0.00694600116            0.000492131391           
       2.269408             0.00732290967            0.000507376438           
       2.272048             0.00680791965            0.000486290227           
       2.274689             0.00824414756            0.000542183434           
       2.277329             0.00722866964            0.000478027195           
       2.279969             0.00649113161            0.000482176371           
       2.282610             0.00727300831            0.000496195351           
       2.285250             0.00737209854            0.000478150722           
       2.287891             0.00649645375            0.000481241837           
       2.290531             0.00839435168            0.000554393301           
       2.293171             0.00716289513            0.000498847689           
       2.295812             0.00737061418            0.000503995052           
       2.298452             0.00697135754            0.000512571489           
       2.301092             0.00743234236            0.000491735738           
       2.303733             0.00746411167            0.000512669141           
       2.306373             0.00803945199            0.000540440052           
       2.309014             0.00834383696            0.000539835421           
       2.311654             0.00867881901            0.000574540956           
       2.314294             0.00668810469            0.000464670411           
       2.316935             0.00700818282            0.000477624676           
       2.319575              0.0073632111            0.000512959442           
       2.322215             0.00733059581            0.000533405039           
       2.324856             0.00663630102            0.000466609163           
       2.327496             0.00794356799            0.000542824662           
       2.330137             0.00652630805            0.000470829357           
       2.332777             0.00841966846            0.000551417846           
       2.335417             0.00714193999            0.000492697199           
       2.338058             0.00782649543            0.000531176671           
       2.340698             0.00755809592            0.000517887204           
       2.343339             0.00747713421             0.00052644134           
       2.345979              0.0075338802            0.000499941746           
       2.348619             0.00709795225            0.000503000411           
       2.351260             0.00686398422            0.000491758908           
       2.353900             0.00683269632            0.000489082607           
       2.356540             0.00826999771             0.00053730629           
       2.359181             0.00705965685             0.00048947369           
       2.361821             0.00689844688            0.000467388868           
       2.364462             0.00735169774            0.000504633706           
       2.367102             0.00761226129            0.000527701967           
       2.369742             0.00795625552            0.000567854189           
       2.372383             0.00718332308            0.000488576354           
       2.375023             0.00754672699            0.000526430827           
       2.377663             0.00662315761            0.000471540641           
       2.380304             0.00711506212             0.00049688692           
       2.382944             0.00760224893            0.000489203789           
       2.385585             0.00802204736            0.000535956149           
       2.388225             0.00663471537            0.000485123436           
       2.390865             0.00758923639            0.000513518274           
       2.393506             0.00628336235            0.000458438587           
       2.396146             0.00758773586            0.000544710034           
       2.398787              0.0073066183            0.000492605658           
       2.401427             0.00717307979            0.000471112982           
       2.404067             0.00663006488             0.00046303292           
       2.406708             0.00660554878            0.000456633801           
       2.409348             0.00671810525            0.000488458625           
       2.411988             0.00732573838            0.000499756112           
       2.414629             0.00776466647            0.000530533811           
       2.417269             0.00705806949            0.000511723973           
       2.419910             0.00736004637             0.00052376885           
       2.422550             0.00675456376            0.000480055248           
       2.425190             0.00703010866            0.000516246624           
       2.427831             0.00626074551            0.000484441145           
       2.430471             0.00691658224            0.000485095023           
       2.433112             0.00722501701            0.000482784304           
       2.435752              0.0071532439            0.000508392375           
       2.438392             0.00625981487            0.000459036823           
       2.441033             0.00752525231            0.000533397305           
       2.443673             0.00745978561            0.000531480342           
       2.446313             0.00693688512             0.00051296653           
       2.448954             0.00666363042            0.000478699464           
       2.451594             0.00726435358            0.000537413825           
       2.454235             0.00665056237            0.000482459172           
       2.456875             0.00681294795            0.000510951159           
       2.459515             0.00817656499            0.000574244668           
       2.462156             0.00902119619             0.00056948154           
       2.464796             0.00735922619            0.000507719785           
       2.467436             0.00688058509            0.000507680594           
       2.470077             0.00851779781            0.000535385641           
       2.472717             0.00719750775            0.000494278062           
       2.475358             0.00744387638            0.000507907717           
       2.477998             0.00763615934            0.000505753298           
       2.480638             0.00738461102            0.000506190854           
       2.483279             0.00755019005            0.000534948482           
       2.485919             0.00770618505            0.000520843799           
       2.488560             0.00663828536            0.000482059399           
       2.491200             0.00698242178            0.000509098028           
       2.493840             0.00756222965            0.000560612434           
       2.496481             0.00708291875            0.000533680175           
       2.499121             0.00661154195            0.000501518831           
       2.501761             0.00788466742            0.000554937348           
       2.504402             0.00678150132            0.000507134744           
       2.507042             0.00683537447            0.000505373423           
       2.509683             0.00716829354             0.00050962456           
       2.512323             0.00783568329            0.000559593859           
       2.514963             0.00716382575            0.000528455123           
       2.517604             0.00716768376            0.000548501097           
       2.520244             0.00737092626            0.000521460286           
       2.522884             0.00775651956            0.000542575878           
       2.525525             0.00905216402            0.000592795375           
       2.528165              0.0080776579            0.000551249696           
       2.530806             0.00884500277            0.000586893449           
       2.533446              0.0114725534            0.000654139287           
       2.536086             0.00781146686            0.000534936074           
       2.538727             0.00796243115            0.000518125071           
       2.541367             0.00730413247            0.000501133178           
       2.544008             0.00687859061            0.000502245726           
       2.546648             0.00709696851            0.000518906497           
       2.549288             0.00723034465            0.000534431852           
       2.551929             0.00722919094            0.000525870963           
       2.554569             0.00716464312            0.000504365782           
       2.557209             0.00705244755            0.000504996683           
       2.559850             0.00643524329            0.000483942157           
       2.562490             0.00593690497            0.000480423301           
       2.565131             0.00790752699            0.000574881331           
       2.567771              0.0069519802            0.000519704882           
       2.570411             0.00725869478            0.000525299741           
       2.573052             0.00720383353            0.000529901238           
       2.575692             0.00727623296            0.000529332468           
       2.578332             0.00636503246            0.000497127472           
       2.580973             0.00613993527            0.000483612364           
       2.583613             0.00631377508            0.000478733688           
       2.586254             0.00601104014             0.00046646629           
       2.588894             0.00683344052            0.000516477848           
       2.591534             0.00820837544            0.000585975795           
       2.594175             0.00696030272            0.000529409157           
       2.596815             0.00733459742            0.000546661782           
       2.599456             0.00857325069            0.000560463013           
       2.602096             0.00631449865            0.000484658954           
       2.604736             0.00736420082            0.000535805896           
       2.607377             0.00594678392            0.000468799529           
       2.610017             0.00773560339            0.000525322379           
       2.612657             0.00686568266             0.00052640467           
       2.615298             0.00711618531            0.000523228358           
       2.617938             0.00752713712            0.000575655425           
       2.620579             0.00688558444            0.000528548378           
       2.623219             0.00638939955            0.000508422599           
       2.625859             0.00638175903            0.000494033724           
       2.628500             0.00702286169            0.000514857986           
       2.631140              0.0059466942              0.0004810707           
       2.633780             0.00741707902            0.000536796718           
       2.636421             0.00778992877            0.000563652017           
       2.639061             0.00710836025             0.00050686971           
       2.641702             0.00703052861            0.000515757063           
       2.644342             0.00705201403            0.000518745526           
       2.646982              0.0075504862            0.000528741764           
       2.649623             0.00727421899              0.0005438686           
       2.652263             0.00685556684            0.000522687774           
       2.654904              0.0069546632            0.000526981541           
       2.657544             0.00792915488            0.000529997573           
       2.660184             0.00618861604            0.000495521366           
       2.662825             0.00676002704            0.000529907779           
       2.665465             0.00643977512            0.000500220943           
       2.668105             0.00782280109            0.000581117655           
       2.670746             0.00658866215            0.000492666773           
       2.673386              0.0125073661            0.000699550975           
       2.676027              0.0118815328            0.000670881807           
       2.678667              0.0100805476            0.000602962647           
       2.681307              0.0116959448            0.000638151362           
       2.683948               0.013794368            0.000712064259           
       2.686588              0.0118547474            0.000649160198           
       2.689229              0.0108020675            0.000605514094           
       2.691869              0.0101093748            0.000619108963           
       2.694509             0.00805082643            0.000552794543           
       2.697150             0.00760339418            0.000528498174           
       2.699790             0.00742692518            0.000547587075           
       2.702430             0.00849582692            0.000559828201           
       2.705071             0.00698742388            0.000524616151           
       2.707711             0.00698156726            0.000508965856           
       2.710352              0.0067053661            0.000527040974           
       2.712992             0.00731345868            0.000560597709           
       2.715632             0.00699221123            0.000508571831           
       2.718273             0.00715833857            0.000533290762           
       2.720913             0.00702188134            0.000526680471           
       2.723553             0.00664702044            0.000515867481           
       2.726194             0.00775043625            0.000582292203           
       2.728834             0.00761729136            0.000577539768           
       2.731475             0.00820111367            0.000553067918           
       2.734115              0.0079114057            0.000560070204           
       2.736755             0.00725678182            0.000540813638           
       2.739396             0.00723660234            0.000536932143           
       2.742036             0.00782241898            0.000584235802           
       2.744677              0.0071375597            0.000541486516           
       2.747317             0.00691768405            0.000529279652           
       2.749957             0.00775098128            0.000564183447           
       2.752598             0.00770336187            0.000568551694           
       2.755238             0.00641853424            0.000528345254           
       2.757878             0.00842620886            0.000600070326           
       2.760519             0.00777497209            0.000570303383           
       2.763159              0.0081915714             0.00057953317           
       2.765800             0.00842276249            0.000560025442           
       2.768440             0.00857445605            0.000569208584           
       2.771080             0.00901440663            0.000588500422           
       2.773721             0.00536819672            0.000465857948           
       2.776361             0.00671537939            0.000528232531           
       2.779001             0.00827750825            0.000607340544           
       2.781642              0.0073288199            0.000567266451           
       2.784282              0.0068424778            0.000557134696           
       2.786923             0.00688114287            0.000563625883           
       2.789563             0.00774781575            0.000576009354           
       2.792203             0.00729885627            0.000534072865           
       2.794844             0.00744418088            0.000591133603           
       2.797484             0.00747745874            0.000559131472           
       2.800125             0.00674571519            0.000558419208           
       2.802765             0.00636864293            0.000533253177           
       2.805405             0.00654567187            0.000542443554           
       2.808046             0.00710507278            0.000575082381           
       2.810686             0.00774150252            0.000551593296           
       2.813326             0.00610580545            0.000508836202           
       2.815967             0.00762160181            0.000584662991           
       2.818607             0.00586560711            0.000489454264           
       2.821248             0.00812290975            0.000564027363           
       2.823888             0.00648900936            0.000523288895           
       2.826528             0.00853385141            0.000581168844           
       2.829169             0.00637925198            0.000526314648           
       2.831809             0.00606437403            0.000520141018           
       2.834449             0.00626695896             0.00053209909           
       2.837090             0.00694983872            0.000541199357           
       2.839730             0.00642326378            0.000517752469           
       2.842371             0.00786516776            0.000573752561           
       2.845011             0.00670778764            0.000534082474           
       2.847651             0.00704769233            0.000548119427           
       2.850292             0.00655818418            0.000533930804           
       2.852932             0.00652132085            0.000544031473           
       2.855573             0.00699264052            0.000546463552           
       2.858213             0.00726440328            0.000584897858           
       2.860853              0.0077247795            0.000561065186           
       2.863494             0.00759461196            0.000575989614           
       2.866134             0.00781440274            0.000607270881           
       2.868774             0.00752197651             0.00058554934           
       2.871415             0.00572301234            0.000518707436           
       2.874055             0.00712466875            0.000553214904           
       2.876696              0.0067542169            0.000553210007           
       2.879336             0.00734224065            0.000555913528           
       2.881976             0.00757477478            0.000582395489           
       2.884617             0.00760659975            0.000575046343           
       2.887257             0.00794498209            0.000590731184           
       2.889897             0.00715981975            0.000549241079           
       2.892538             0.00749354876            0.000615558827           
       2.895178             0.00652703106            0.000519014822           
       2.897819             0.00629913766            0.000520119731           
       2.900459             0.00688568628            0.000533217924           
       2.903099             0.00703197522            0.000533336596           
       2.905740             0.00684369298            0.000539760682           
       2.908380             0.00726614411            0.000562489939           
       2.911021             0.00616031941            0.000526342589           
       2.913661             0.00735880913            0.000575096249           
       2.916301             0.00751426031            0.000581693012           
       2.918942             0.00675967884            0.000527727712           
       2.921582             0.00630983898             0.00053346667           
       2.924222             0.00796416189            0.000580638411           
       2.926863              0.0073574798            0.000581309826           
       2.929503             0.00713517345            0.000579242508           
       2.932144             0.00689727139            0.000546689058           
       2.934784             0.00712259463             0.00054643766           
       2.937424             0.00689410441            0.000543120907           
       2.940065             0.00721066475            0.000529847154           
       2.942705             0.00749446023            0.000539495631           
       2.945346             0.00774939273            0.000582197788           
       2.947986             0.00769453277            0.000591535268           
       2.950626             0.00702022292             0.00056184022           
       2.953267              0.0063019279            0.000523720706           
       2.955907             0.00626878839            0.000541857898           
       2.958547             0.00793265592             0.00057543796           
       2.961188             0.00719573301            0.000571777778           
       2.963828             0.00682411407            0.000544670467           
       2.966469             0.00711930968            0.000545754224           
       2.969109             0.00689557876            0.000545068466           
       2.971749             0.00705898918            0.000548048748           
       2.974390             0.00674767779            0.000526548696           
       2.977030             0.00722487376             0.00055702585           
       2.979670             0.00933039478            0.000615723623           
       2.982311             0.00903280272            0.000627906952           
       2.984951             0.00710961877            0.000529819426           
       2.987592              0.0069442324            0.000534108436           
       2.990232              0.0074259364            0.000574409703           
       2.992872             0.00825647096            0.000570516528           
       2.995513              0.0083741268            0.000562115761           
       2.998153              0.0118509372            0.000679936612           
       3.000794              0.0123077131            0.000671160592           
       3.003434              0.0108241237             0.00063036106           
       3.006074              0.0450302588             0.00126769602           
       3.008715                0.11761286             0.00197769229           
       3.011355               0.191681263             0.00243469008           
       3.013995              0.0993409768             0.00175751108           
       3.016636              0.0668440862             0.00141173485           
       3.019276               0.134925186             0.00197157218           
       3.021917               0.496832283             0.00363782885           
       3.024557                1.60355909             0.00642554281           
       3.027197                1.16143563             0.00533145906           
       3.029838               0.524944507             0.00363514889           
       3.032478               0.263928224             0.00258017867           
       3.035118              0.0716688803             0.00136257356           
       3.037759              0.0928817056             0.00154916987           
       3.040399               0.133418469              0.0019152333           
       3.043040               0.537563398             0.00389152207           
       3.045680               0.393951481             0.00313436939           
       3.048320              0.0864598186             0.00150031736           
       3.050961               0.107015736             0.00169857814           
       3.053601              0.0922634582             0.00151899916           
       3.056242              0.0664443888             0.00137054052           
       3.058882              0.0633006123             0.00143498117           
       3.061522               0.048774632             0.00123583653           
       3.064163              0.0622892167             0.00137900846           
       3.066803               0.122781131             0.00203828948           
       3.069443               0.112025045             0.00203702165           
       3.072084              0.0371324832             0.00114197082           
       3.074724              0.0447017107             0.00139927947           
       3.077365              0.0717127797             0.00183465435           
       3.080005              0.0126132374            0.000773790224           
       3.082645               0.014628136            0.000875407305           
       3.085286              0.0144724924            0.000877607495           
       3.087926             0.00994523381            0.000721898294           
       3.090566               0.011455272             0.00075912231           
       3.093207              0.0114336812            0.000789200528           
       3.095847             0.00969462723            0.000696538386           
       3.098488              0.0083670393            0.000717513238           
       3.101128              0.0089018407            0.000744848528           
       3.103768             0.00851398076            0.000714736451           
       3.106409               0.009507816            0.000803843289           
       3.109049             0.00932670954            0.000764026313           
       3.111690             0.00857913689            0.000720187667           
       3.114330             0.00765080893            0.000694575618           
       3.116970             0.00818642352            0.000723992993           
       3.119611              0.0119532694            0.000931213723           
       3.122251              0.0185252144             0.00121264382           
       3.124891              0.0359382505             0.00170473433           
       3.127532              0.0249143952             0.00138858194           
       3.130172              0.0145142397             0.00107816128           
       3.132813              0.0102713446             0.00089289572           
       3.135453             0.00874980834            0.000817323861           
       3.138093              0.0069588503            0.000789781128           
       3.140734             0.00756137723            0.000759523254           
       3.143374             0.00776865856            0.000814164147           
       3.146014             0.00779817702            0.000878148436           
       3.148655             0.00854090176            0.000854310821           
       3.151295             0.00484637745            0.000685787908           
       3.153936             0.00678690568            0.000783936131           
       3.156576              0.0070317071            0.000787095313           
       3.159216             0.00710192829            0.000794972161           
       3.161857             0.00535045856            0.000687207977           
       3.164497             0.00827880432            0.000898173281           
       3.167138             0.00777469798             0.00089933398           
       3.169778              0.0069050372            0.000833566869           
       3.172418             0.00718562119             0.00084168482           
       3.175059              0.0068866638            0.000730501739           
       3.177699             0.00682715681            0.000770207784           
       3.180339             0.00627634101            0.000791228597           
       3.182980             0.00596153269            0.000797270201           
       3.185620             0.00607645472            0.000819740578           
       3.188261              0.0060696427            0.000833901338           
       3.190901             0.00697814662            0.000822344805           
       3.193541             0.00651106342            0.000834666377           
       3.196182             0.00510202467            0.000769991157           
       3.198822             0.00568524301            0.000813082318           
       3.201463             0.00482326368            0.000736008814           
       3.204103             0.00577724041            0.000800612493           
       3.206743             0.00542801629             0.00077596467           
       3.209384             0.00828071306             0.00103548949           
       3.212024             0.00698067094              0.0008863851           
       3.214664             0.00626035872            0.000954527304           
       3.217305             0.00562219872            0.000859855593           
       3.219945              0.0050220855            0.000836447666           
       3.222586             0.00632312075            0.000893963669           
       3.225226              0.0041937445            0.000807646743           
       3.227866             0.00649513223            0.000918662275           
       3.230507             0.00628533673            0.000936787788           
       3.233147             0.00608533149            0.000929205665           
       3.235787             0.00622753596            0.000961972541           
       3.238428             0.00482480452              0.0009137277           
       3.241068              0.0075539088              0.0010690487           
       3.243709             0.00841368201              0.0011656597           
       3.246349              0.0049698326            0.000816677727           
       3.248989             0.00671140175             0.00112060989           
       3.251630             0.00589358706             0.00101123401           
       3.254270             0.00538869997            0.000864190707           
       3.256911             0.00511160633            0.000918364767           
       3.259551             0.00764482301             0.00120912234           
       3.262191               0.007182436             0.00119712513           
       3.264832             0.00651898639             0.00119164727           
       3.267472             0.00515918532            0.000994491025           
       3.270112             0.00487042161             0.00106783941           
       3.272753             0.00747552471             0.00121092791           
       3.275393              0.0065454581              0.0011561547           
       3.278034              0.0056985398             0.00107937451           
       3.280674             0.00481993762              0.0010772001           
       3.283314             0.00443184514            0.000923799196           
       3.285955             0.00593225004             0.00110276329           
       3.288595             0.00534300851             0.00116434088           
       3.291235             0.00772020273             0.00143876899           
       3.293876             0.00440825957             0.00110282513           
       3.296516             0.00610209823             0.00124564432           
       3.299157             0.00472180331             0.00108197408           
       3.301797             0.00678578533             0.00147954651           
       3.304437             0.00603838349             0.00120919903           
       3.307078             0.00378751006             0.00105492876           
       3.309718             0.00279202047            0.000934890684           
       3.312359             0.00406496681             0.00112832235           
       3.314999             0.00514596919             0.00124994269           
       3.317639              0.0050055487             0.00117899383           
       3.320280              0.0040722359             0.00113062796           
       3.322920             0.00549943277             0.00133601388           
       3.325560             0.00482905892             0.00125278984           
       3.328201             0.00473029198             0.00111669041           
       3.330841             0.00743602662             0.00170401012           
       3.333482             0.00452311753             0.00125619754           
       3.336122             0.00592863937             0.00143885195           
       3.338762             0.00744596538             0.00186268456           
       3.341403             0.00509671013             0.00147255882           
       3.344043             0.00506730072             0.00140969307           
       3.346683             0.00489210198             0.00141408346           
       3.349324             0.00465715244             0.00155124694           
       3.351964             0.00575011004             0.00182273632           
       3.354605             0.00833275239               0.002509425           
       3.357245             0.00362147347             0.00149238335           
       3.359885             0.00433232609             0.00130642319           
       3.362526             0.00366937788             0.00150354962           
       3.365166             0.00214941753             0.00108538239           
       3.367807             0.00719559984             0.00254153961           
       3.370447             0.00308549693             0.00138054181           
       3.373087             0.00350389743             0.00157322179           
       3.375728             0.00979932653             0.00296928309           
       3.378368             0.00584712732             0.00340404007           
       3.381008             0.00218166406              0.0015502276           
       3.383649             0.00139113047            0.000993047257           
       3.386289             0.00592832201             0.00242623251           
       3.388930             0.00250645862             0.00249539965           
       3.391570             0.00496268664             0.00248388083           
       3.394210             0.00398556045             0.00281700097           
       3.396851             0.00248501331             0.00248817231           
       3.399491             0.00247504523              0.0024838751           
       3.402131              0.0147623671             0.00858247749           
       3.404772             0.00974089878              0.0098617495           
       3.407412                       nan                       nan           
       3.410053           -2.67352148e-05                         0           
       3.412693                       nan                       nan           
       3.415333           -2.67863053e-05                         0           
