################################################################################
# EDF_DataBlockID                     0.Image.Psd
# EDF_BinarySize                      2105344
# EDF_HeaderSize                      2560
# ByteOrder                           LowByteFirst
# DataType                            FloatValue
# Dim_1                               512
# Dim_2                               1028
# Image                               0
# HeaderID                            EH:000000:000000:000000
# Size                                2105344
# Center_1                            304.9000
# Center_2                            588.7000
# Comment                             Xenocs_Cell_Window - 20251028_20perc_iodine_1.23mg
# DDummy                              0.6
# Date                                2025-10-31T12:06:10
# Delta                               21.910000
# Dummy                               -1.5
# ExposureTime                        360
# Gamma                               15.360000
# Intensity1                          8.53173e-10
# PSize_1                             7.5e-05
# PSize_2                             7.5e-05
# Pressure                            0.0327063
# SampleDistance                      0.115750
# SampleEnvKind                       large
# SampleEnvPN                         ElectroChemical cell
# SampleEnvSN                         1141
# Thickness                           0
# Wavelength                          1.541891e-10
# Wavelength                          1.54189e-10
# aux                                 0
# aux_dial                            0.002375
# beamx                               588.434
# beamx_dial                          588.434
# beamz                               657.808
# beamz_dial                          657.808
# det0x                               0
# det0x_dial                          6.36945
# det0xvd                             0
# det0xvd_dial                        0
# det0y                               450.002
# det0y_dial                          481.635
# det0z                               0
# det0z_dial                          1.23302
# det0zvd                             0
# det0zvd_dial                        0
# mag                                 1.818
# mag_dial                            1.818
# om                                  0.2499
# om_dial                             -0.610199
# phi                                 -0.0120535
# phi_dial                            0
# ry                                  0.599993
# ry_dial                             0.599993
# s1bot                               0.8
# s1bot_dial                          -1.66094
# s1hl                                0.8
# s1hl_dial                           -0.608437
# s1hr                                0.8
# s1hr_dial                           0.970938
# s1top                               0.8
# s1top_dial                          -0.461562
# s2bot                               0.45
# s2bot_dial                          1.36109
# s2hl                                0.45
# s2hl_dial                           -0.83375
# s2hr                                0.45
# s2hr_dial                           -0.118594
# s2top                               0.45
# s2top_dial                          1.44734
# w2theta                             32
# w2theta_dial                        32
# waxsch                              19.2605
# waxsch_dial                         -32.7355
# waxsh                               137.085
# waxsh_dial                          -43.5338
# waxsth                              26.0607
# waxsth_dial                         -19.4086
# waxsz                               67.0407
# waxsz_dial                          -23.7954
# wind                                65.9854
# wind_dial                           66.0041
# wpsi                                124
# wpsi_dial                           124
# wstod                               115
# wstod_dial                          115
# x                                   0
# x_dial                              1.00969
# z                                   0
# z_dial                              13.3172
# CountCutoff                         6807993
# DetectorModel                       Dectris EIGER2 Si 500K, S/N E-01-0554
# ThresholdSetting                    4023.88989258
# Saturation                          0
# FlatField                           Corrected
# BackgroundReductionExtra            0.02
# BackgroundCorrectionConstant        0.0026712
# Detector                            0
# Monitor                             0
# Pil_Roi0                            0
# SumForIntensity1                    3.07142e+08
# TransmittedFlux                     853173
# det                                 0
# mon                                 0
# pilai0                              3.07142e+08
# pilai1                              779398
# pilct0                              5.31669e+08
# pilct1                              779398
# pilroi0                             0
# pilroi1                             0
# sec                                 1
# title                               20251028_20perc_iodine_1.23mg_1_00634.edf
# usaxs0                              0
# Operation                           Azimuthal average I(q)
# Error_model                         ErrorModel.poisson
# Geometrical_correction              True
# Transmission_correction             True
# Thickness_correction                False
# Binning mode                        Uniform
# Binning factor                      1.0
# Psi                                 0.0
# Omega                               0.2499
# MaskInvalidPixels                   True
# DetectorEdge                        3
# MaskFiles                           ['WAXS_corrected.edf']
################################################################################
    q(A⁻¹)                Intensity(a.u.)            Sigma_I(a.u.)            
       0.693100             0.00827959878             0.00607295639           
       0.695741             0.00275294893             0.00285760577           
       0.698381            -2.3777632e-05                         0           
       0.701021           -2.37598106e-05                         0           
       0.703662              0.0143009823             0.00651014521           
       0.706302              0.0069239272             0.00350704341           
       0.708942             0.00572867121             0.00411730367           
       0.711583             0.00221571555              0.0022173219           
       0.714223              0.0146677268             0.00658647534           
       0.716864              0.0075049391             0.00308259191           
       0.719504             0.00736694969              0.0032957492           
       0.722144             0.00122394913             0.00124405278           
       0.724785              0.0112071031             0.00300286086           
       0.727425              0.0102729882             0.00388934945           
       0.730065              0.0108732225             0.00283040724           
       0.732706             0.00458324746             0.00154313949           
       0.735346             0.00526503283             0.00215597235           
       0.737987             0.00523682902             0.00151940627           
       0.740627             0.00676188528             0.00257608446           
       0.743267             0.00525280556              0.0015207717           
       0.745908             0.00624122373             0.00179850628           
       0.748548              0.0110028705             0.00220112404           
       0.751189             0.00720767185             0.00240052121           
       0.753829             0.00673633742             0.00213326627           
       0.756469             0.00784625399             0.00185651165           
       0.759110             0.00731386954             0.00188890727           
       0.761750              0.0064410135             0.00156738181           
       0.764390             0.00876144463             0.00191333503           
       0.767031             0.00812040549               0.001595112           
       0.769671             0.00828422568             0.00200975411           
       0.772312             0.00646655822             0.00135177656           
       0.774952             0.00768618871             0.00199013965           
       0.777592             0.00953371736             0.00161441936           
       0.780233             0.00558720193             0.00149109796           
       0.782873             0.00870089859             0.00177964622           
       0.785513             0.00869018351             0.00190138416           
       0.788154             0.00722381884              0.0014501826           
       0.790794             0.00622291489              0.0016091452           
       0.793435             0.00570891926             0.00138460365           
       0.796075             0.00808892823             0.00158766977           
       0.798715             0.00693842902             0.00173763279           
       0.801356             0.00572154572             0.00135806335           
       0.803996             0.00936421626             0.00177129859           
       0.806637             0.00911805182             0.00139097495           
       0.809277             0.00798488135             0.00140891193           
       0.811917             0.00870860712             0.00137550322           
       0.814558             0.00723094392             0.00130267061           
       0.817198             0.00507736284             0.00103705373           
       0.819838             0.00646845489             0.00118466252           
       0.822479             0.00719449843             0.00146711356           
       0.825119             0.00927343665             0.00141767783           
       0.827760             0.00781950452             0.00131868069           
       0.830400             0.00762608544             0.00122567709           
       0.833040             0.00842195129             0.00134947628           
       0.835681             0.00894686973             0.00158120995           
       0.838321             0.00550430965             0.00104097219           
       0.840961             0.00697848252             0.00127706849           
       0.843602             0.00822000237             0.00127103744           
       0.846242             0.00742890414             0.00120814752           
       0.848883             0.00760920829             0.00125127884           
       0.851523              0.0102635686             0.00143517557           
       0.854163             0.00566934986              0.0011343358           
       0.856804              0.0073166658             0.00115866411           
       0.859444             0.00789461529             0.00117925269           
       0.862085             0.00725798718             0.00117847811           
       0.864725             0.00779994042               0.001250268           
       0.867365             0.00517343805            0.000944197831           
       0.870006             0.00701945776              0.0010480525           
       0.872646             0.00722143653             0.00111472774           
       0.875286             0.00618793155            0.000992733704           
       0.877927             0.00829100156             0.00110884245           
       0.880567             0.00893093167             0.00119229302           
       0.883208             0.00825097931             0.00113521084           
       0.885848             0.00722345004             0.00110285738           
       0.888488             0.00872066244             0.00113656954           
       0.891129             0.00779234843              0.0011031578           
       0.893769             0.00743811531             0.00103147488           
       0.896410             0.00706996145            0.000937594147           
       0.899050             0.00691609101             0.00101981653           
       0.901690             0.00551201588            0.000991723657           
       0.904331             0.00802034482             0.00106056594           
       0.906971             0.00570485383            0.000951563565           
       0.909611             0.00773994476             0.00100897078           
       0.912252             0.00700637764             0.00099154538           
       0.914892             0.00718597375             0.00109734728           
       0.917533             0.00732081909             0.00104778113           
       0.920173             0.00773942007            0.000999541669           
       0.922813             0.00808691731              0.0010721956           
       0.925454             0.00644271937            0.000861762425           
       0.928094             0.00839489328             0.00105017753           
       0.930734             0.00592911006              0.0009501858           
       0.933375             0.00669972131              0.0010001189           
       0.936015             0.00786184983            0.000983951681           
       0.938656             0.00680255183             0.00098186415           
       0.941296             0.00745265399            0.000931389047           
       0.943936             0.00558205818            0.000790476702           
       0.946577              0.0068274745            0.000868442791           
       0.949217             0.00801464377            0.000865262438           
       0.951858             0.00757186319            0.000880381701           
       0.954498              0.0069854692            0.000978772577           
       0.957138              0.0078680983            0.000984091251           
       0.959779             0.00608895546             0.00085341104           
       0.962419             0.00802190149            0.000973031918           
       0.965059             0.00691533125            0.000950172876           
       0.967700              0.0060269493            0.000908508539           
       0.970340             0.00898604668              0.0009816559           
       0.972981             0.00780943893            0.000833775211           
       0.975621             0.00856438098             0.00092887728           
       0.978261             0.00863707522            0.000886334578           
       0.980902              0.0062163228            0.000899654418           
       0.983542             0.00734647697            0.000866101969           
       0.986182             0.00868060404            0.000924325106           
       0.988823             0.00715104229            0.000814618848           
       0.991463             0.00686095487            0.000851302704           
       0.994104             0.00863071309            0.000931427809           
       0.996744             0.00806914964            0.000918621302           
       0.999384             0.00844867912            0.000840653508           
       1.002025              0.0080370607            0.000915138549           
       1.004665             0.00740675037            0.000802859371           
       1.007306             0.00783763891            0.000821655156           
       1.009946             0.00905944544            0.000900924432           
       1.012586             0.00679636469             0.00075999125           
       1.015227             0.00960996118            0.000970871896           
       1.017867             0.00851452837            0.000878286182           
       1.020507             0.00671903486            0.000755735388           
       1.023148             0.00841980347             0.00091285067           
       1.025788             0.00698336044            0.000762277286           
       1.028429             0.00711270332            0.000805972658           
       1.031069             0.00930664079            0.000867574547           
       1.033709              0.0074744336            0.000826482651           
       1.036350             0.00742919575            0.000740044688           
       1.038990             0.00687953426            0.000725228534           
       1.041630             0.00999194994            0.000911609841           
       1.044271             0.00785209169            0.000760008743           
       1.046911             0.00626876383            0.000714296866           
       1.049552             0.00683545979            0.000783646439           
       1.052192             0.00728144351            0.000738543553           
       1.054832             0.00830405974            0.000795876082           
       1.057473             0.00830293255            0.000784512536           
       1.060113             0.00803632823            0.000752729068           
       1.062754             0.00860245312             0.00079513204           
       1.065394              0.0100821316            0.000910092346           
       1.068034             0.00878261293            0.000772853361           
       1.070675             0.00882552579            0.000808148155           
       1.073315             0.00836947673            0.000798271624           
       1.075955             0.00780477211              0.0007277462           
       1.078596             0.00958665232            0.000857206638           
       1.081236             0.00992866755            0.000835345051           
       1.083877             0.00717847226            0.000703919437           
       1.086517             0.00913658702             0.00085155415           
       1.089157             0.00931660255            0.000892244862           
       1.091798             0.00819292125            0.000733556944           
       1.094438             0.00920060107             0.00077485165           
       1.097078             0.00863983258             0.00072016042           
       1.099719             0.00955451551            0.000819160187           
       1.102359             0.00818951338            0.000710242863           
       1.105000               0.010322062            0.000891617454           
       1.107640             0.00830073306            0.000764513766           
       1.110280             0.00914000464            0.000731976042           
       1.112921             0.00770812883            0.000722087536           
       1.115561             0.00863025304            0.000726174502           
       1.118202             0.00852278296            0.000722318893           
       1.120842             0.00884036041            0.000773176485           
       1.123482             0.00903340283            0.000778159013           
       1.126123             0.00782873055            0.000694836802           
       1.128763             0.00948551633            0.000770078729           
       1.131403             0.00725061217            0.000648757363           
       1.134044             0.00966048502            0.000770567754           
       1.136684             0.00907647637            0.000796338746           
       1.139325             0.00883695585            0.000723842281           
       1.141965             0.00918780368            0.000742950843           
       1.144605             0.00807555116            0.000664144159           
       1.147246              0.0101670641            0.000762649858           
       1.149886             0.00812832793            0.000679490761           
       1.152527             0.00905570803            0.000727636012           
       1.155167             0.00922324434            0.000698465409           
       1.157807             0.00753741577            0.000676988421           
       1.160448             0.00952300112            0.000743088528           
       1.163088             0.00822038764            0.000658538495           
       1.165728             0.00895407759            0.000705662442           
       1.168369             0.00872427579            0.000702983475           
       1.171009              0.0100683444            0.000732896849           
       1.173650             0.00948127867            0.000729870069           
       1.176290             0.00949742322             0.00071385378           
       1.178930              0.0101658374            0.000723842982           
       1.181571              0.0103371798            0.000744392108           
       1.184211             0.00948971662            0.000715755096           
       1.186851             0.00846214373            0.000660810963           
       1.189492             0.00921917472            0.000685096054           
       1.192132             0.00828942211            0.000642343356           
       1.194773             0.00873340726            0.000662201831           
       1.197413             0.00996528936            0.000677755678           
       1.200053             0.00970811084            0.000685950019           
       1.202694               0.010136654            0.000666540901           
       1.205334              0.0095077948            0.000695684044           
       1.207975              0.0100961349            0.000684287302           
       1.210615             0.00947352903             0.00073123877           
       1.213255             0.00995322149            0.000671180878           
       1.215896             0.00932443625            0.000661405149           
       1.218536             0.00943507119            0.000639731136           
       1.221176              0.0102007405             0.00072318974           
       1.223817              0.0095195613            0.000655812277           
       1.226457              0.0107453981            0.000710795683           
       1.229098             0.00931347553            0.000661710851           
       1.231738                 0.0104366            0.000703921264           
       1.234378               0.010585821            0.000666151627           
       1.237019             0.00982550742            0.000661351467           
       1.239659              0.0106359251             0.00068209167           
       1.242299              0.0107622985            0.000677414526           
       1.244940             0.00966386191            0.000624302328           
       1.247580              0.0100485711            0.000656076084           
       1.250221              0.0111627926            0.000687227335           
       1.252861               0.010415639            0.000631969469           
       1.255501              0.0106647531            0.000694355568           
       1.258142              0.0108459175            0.000657990135           
       1.260782             0.00952804966            0.000630064428           
       1.263423              0.0111910411            0.000656130869           
       1.266063              0.0101738809             0.00064122474           
       1.268703             0.00883800679            0.000592686829           
       1.271344              0.0108217572            0.000678065494           
       1.273984              0.0104603801            0.000643850315           
       1.276624              0.0100235403            0.000618422454           
       1.279265              0.0107899105            0.000652283675           
       1.281905             0.00985034109            0.000626003014           
       1.284546              0.0110770633            0.000641661102           
       1.287186              0.0108945402             0.00062432946           
       1.289826               0.010454149            0.000644555903           
       1.292467             0.00988675762            0.000613014262           
       1.295107              0.0117253709            0.000660954026           
       1.297747               0.010993518            0.000612421668           
       1.300388             0.00987551756            0.000632759872           
       1.303028              0.0107917249            0.000631470641           
       1.305669              0.0102883601            0.000631248802           
       1.308309              0.0106169672            0.000634935703           
       1.310949              0.0103213471             0.00062540454           
       1.313590              0.0104865826            0.000610685443           
       1.316230              0.0110831943            0.000669967881           
       1.318871              0.0119498751            0.000681323219           
       1.321511             0.00867780345            0.000569837605           
       1.324151              0.0104532483            0.000606878694           
       1.326792              0.0114236021              0.0006383436           
       1.329432              0.0111734844            0.000626861637           
       1.332072              0.0108350217            0.000608094732           
       1.334713              0.0115797358            0.000648824339           
       1.337353              0.0106823405            0.000597638624           
       1.339994              0.0119442044            0.000663170622           
       1.342634              0.0113907028            0.000621029301           
       1.345274              0.0109717915            0.000630777974           
       1.347915              0.0115764289            0.000630033085           
       1.350555              0.0110686704            0.000626850687           
       1.353195              0.0109834369            0.000627499412           
       1.355836              0.0106576944            0.000608485823           
       1.358476               0.010735986            0.000593098645           
       1.361117              0.0110991433            0.000603874104           
       1.363757              0.0105485253            0.000606680601           
       1.366397              0.0124230847            0.000638460044           
       1.369038              0.0110792253            0.000608943049           
       1.371678              0.0120252671            0.000628816033           
       1.374319               0.011488674            0.000609333917           
       1.376959              0.0106066935            0.000579589886           
       1.379599              0.0103610883            0.000613911209           
       1.382240              0.0117450766             0.00061431242           
       1.384880              0.0112116652            0.000635748819           
       1.387520              0.0103460444            0.000580013656           
       1.390161              0.0118337379             0.00058914988           
       1.392801              0.0110660869            0.000593593555           
       1.395442              0.0107918449            0.000594198175           
       1.398082              0.0114189678            0.000572380018           
       1.400722              0.0115428568            0.000602798559           
       1.403363              0.0103080242            0.000599619162           
       1.406003              0.0118523113            0.000601731623           
       1.408644              0.0109259494            0.000605218079           
       1.411284             0.00994792204            0.000546836853           
       1.413924              0.0110626924            0.000574525054           
       1.416565                0.01097383            0.000569965211           
       1.419205              0.0120092522             0.00062198221           
       1.421845              0.0105327634            0.000582151554           
       1.424486               0.011201853            0.000577081413           
       1.427126              0.0108640792            0.000590368693           
       1.429767              0.0114290659            0.000569725613           
       1.432407              0.0131251094            0.000638941019           
       1.435047              0.0108255662            0.000544975482           
       1.437688              0.0101870605            0.000536563957           
       1.440328               0.011355893            0.000578187202           
       1.442968              0.0113627892            0.000591321281           
       1.445609              0.0107846297            0.000557806296           
       1.448249              0.0102442719            0.000557417356           
       1.450890              0.0107142377             0.00056633925           
       1.453530              0.0103143543            0.000581342711           
       1.456170               0.011815734            0.000603875761           
       1.458811              0.0106644197            0.000548585416           
       1.461451              0.0104606884            0.000544745369           
       1.464092              0.0109203864            0.000560225038           
       1.466732             0.00945831558            0.000516894941           
       1.469372              0.0106445897             0.00053551939           
       1.472013              0.0108952985            0.000584330425           
       1.474653              0.0105692058             0.00056664147           
       1.477293              0.0108548819            0.000586351553           
       1.479934              0.0100978069               0.000539638           
       1.482574              0.0104212104            0.000530308894           
       1.485215              0.0112973648            0.000562435641           
       1.487855              0.0100845119            0.000538397829           
       1.490495              0.0115151596            0.000573202954           
       1.493136              0.0107416567            0.000546028204           
       1.495776              0.0105617384            0.000538970682           
       1.498416              0.0106739691             0.00055955374           
       1.501057              0.0112976071              0.0005629811           
       1.503697              0.0105280332            0.000531326933           
       1.506338              0.0105261569            0.000540987924           
       1.508978              0.0111147073             0.00055043944           
       1.511618               0.011020936            0.000583737225           
       1.514259              0.0102275903            0.000542907718           
       1.516899               0.010525635            0.000536259046           
       1.519540             0.00977691954            0.000525168844           
       1.522180              0.0105232794            0.000549631836           
       1.524820             0.00996057455            0.000531734779           
       1.527461              0.0106787948            0.000553294788           
       1.530101               0.010142445            0.000533828201           
       1.532741               0.010623655            0.000543174591           
       1.535382              0.0108454107            0.000557649599           
       1.538022              0.0111579067            0.000532850116           
       1.540663              0.0103237005            0.000551273036           
       1.543303              0.0112849045            0.000535164794           
       1.545943              0.0108171564            0.000554569158           
       1.548584              0.0106023125            0.000558889782           
       1.551224              0.0106789978            0.000518611837           
       1.553864              0.0105932982            0.000545806978           
       1.556505              0.0105180836            0.000525388496           
       1.559145              0.0108418819             0.00053994849           
       1.561786              0.0112774409            0.000551111686           
       1.564426              0.0108488534            0.000523725074           
       1.567066             0.00935764636            0.000509655211           
       1.569707              0.0101450923            0.000521133442           
       1.572347              0.0103725775            0.000544385611           
       1.574988              0.0105004844            0.000521348843           
       1.577628             0.00907836741             0.00050548614           
       1.580268               0.010097641             0.00051652504           
       1.582909             0.00919771727            0.000522529743           
       1.585549             0.00906445153              0.0005036707           
       1.588189              0.0102774994            0.000524609369           
       1.590830             0.00946744242            0.000502878675           
       1.593470             0.00932226145            0.000518766681           
       1.596111              0.0097114242            0.000516940938           
       1.598751             0.00883751128            0.000477829776           
       1.601391             0.00967534542            0.000510997789           
       1.604032             0.00884564002            0.000498810761           
       1.606672             0.00968515901            0.000507118907           
       1.609312             0.00852407596            0.000496628829           
       1.611953             0.00944578343            0.000511582593           
       1.614593             0.00927723029             0.00049732453           
       1.617234             0.00807704874            0.000480922084           
       1.619874             0.00856753077            0.000493352387           
       1.622514             0.00939118965             0.00050947691           
       1.625155             0.00956614915            0.000517238471           
       1.627795             0.00932317455            0.000498116157           
       1.630436              0.0082394539            0.000465826565           
       1.633076              0.0084779009            0.000478716198           
       1.635716             0.00897071208            0.000484771457           
       1.638357             0.00823774325            0.000465769381           
       1.640997             0.00857885371            0.000489713166           
       1.643637             0.00960068223            0.000504128608           
       1.646278             0.00848003043            0.000488680028           
       1.648918             0.00772643143            0.000467733502           
       1.651559             0.00876627303            0.000502081536           
       1.654199              0.0090076522            0.000494995663           
       1.656839             0.00878914829            0.000489125783           
       1.659480             0.00883389563            0.000508783607           
       1.662120             0.00756311606            0.000443386337           
       1.664761             0.00931535822            0.000511139386           
       1.667401             0.00961366711            0.000496300508           
       1.670041              0.0088702036            0.000483992917           
       1.672682             0.00874651911            0.000478631341           
       1.675322             0.00889195151            0.000479490835           
       1.677962             0.00896759304            0.000476214119           
       1.680603             0.00946656913            0.000490789212           
       1.683243             0.00900647342            0.000499448734           
       1.685884             0.00963105125            0.000520290268           
       1.688524             0.00881720819            0.000488199389           
       1.691164             0.00838080333            0.000476072473           
       1.693805             0.00840754322            0.000482069531           
       1.696445             0.00849509097            0.000487383796           
       1.699085              0.0088109267            0.000479729112           
       1.701726              0.0089920395              0.0004668608           
       1.704366             0.00875846591              0.0004853953           
       1.707007             0.00882524774            0.000476381158           
       1.709647             0.00818253854            0.000463886987           
       1.712287              0.0086343015            0.000480668446           
       1.714928             0.00908317416            0.000496979333           
       1.717568             0.00848738115             0.00045254221           
       1.720209             0.00766829561             0.00045055409           
       1.722849              0.0078940676            0.000454788446           
       1.725489             0.00795382095            0.000456889763           
       1.728130             0.00799776592            0.000486885261           
       1.730770             0.00848883911            0.000476394963           
       1.733410             0.00881572375            0.000477849443           
       1.736051             0.00858173378            0.000474746785           
       1.738691             0.00748279817            0.000434322533           
       1.741332             0.00798334437            0.000461731719           
       1.743972             0.00800696745            0.000477521351           
       1.746612             0.00777202379            0.000451764781           
       1.749253             0.00856399885            0.000483589249           
       1.751893             0.00866379361            0.000482828425           
       1.754533             0.00836852142            0.000474086269           
       1.757174             0.00790786728             0.00045653764           
       1.759814             0.00929626932             0.00048749233           
       1.762455             0.00868853284            0.000479942154           
       1.765095             0.00853468239            0.000455039951           
       1.767735             0.00936120173            0.000491266462           
       1.770376             0.00835962551            0.000465466188           
       1.773016             0.00932517806            0.000488319971           
       1.775657             0.00834063823            0.000455178001           
       1.778297             0.00848239375            0.000455077107           
       1.780937             0.00865655761            0.000485239866           
       1.783578             0.00912559218            0.000485754821           
       1.786218             0.00888711211            0.000500270514           
       1.788858             0.00978999111            0.000498688106           
       1.791499             0.00827783919             0.00045341014           
       1.794139             0.00820209837            0.000447669328           
       1.796780             0.00865641855            0.000457683462           
       1.799420             0.00796381597            0.000436561069           
       1.802060             0.00974576305             0.00048683989           
       1.804701             0.00907180031            0.000450750073           
       1.807341             0.00955040091            0.000485973618           
       1.809981              0.0090394704            0.000474371876           
       1.812622             0.00895579051             0.00046367049           
       1.815262              0.0102561298            0.000506731666           
       1.817903             0.00977775976            0.000487441988           
       1.820543              0.0097698853            0.000494838055           
       1.823183             0.00870766202            0.000466906933           
       1.825824             0.00904328484            0.000454579104           
       1.828464             0.00946429202            0.000484824439           
       1.831105             0.00844623961            0.000445344106           
       1.833745             0.00858481062            0.000458571358           
       1.836385             0.00771018299            0.000446986532           
       1.839026             0.00867043988             0.00047250712           
       1.841666             0.00863676014            0.000469916297           
       1.844306             0.00875465117            0.000460203477           
       1.846947             0.00880405061            0.000465545421           
       1.849587             0.00876282734            0.000512870061           
       1.852228             0.00823711279            0.000449635086           
       1.854868             0.00840385318            0.000479756222           
       1.857508              0.0083258345            0.000472840571           
       1.860149             0.00876653112            0.000494008502           
       1.862789             0.00905203102            0.000484534751           
       1.865429             0.00923249033            0.000510796828           
       1.868070             0.00791467897            0.000466635858           
       1.870710             0.00823213125            0.000464930353           
       1.873351             0.00833659147            0.000473654833           
       1.875991             0.00862272089            0.000489576359           
       1.878631             0.00989963381            0.000514528526           
       1.881272             0.00837395739            0.000470051647           
       1.883912             0.00819998954            0.000484078981           
       1.886553             0.00955788499            0.000516782398           
       1.889193             0.00789786054            0.000468963287           
       1.891833             0.00767749786            0.000480194051           
       1.894474             0.00891829307            0.000513037321           
       1.897114             0.00908766595            0.000501147582           
       1.899754             0.00863961052            0.000490681718           
       1.902395              0.0088842537            0.000487852113           
       1.905035             0.00849852486            0.000505375493           
       1.907676             0.00938526919            0.000500551176           
       1.910316             0.00801514654            0.000474855729           
       1.912956             0.00884857442            0.000487956832           
       1.915597             0.00842407602            0.000478769353           
       1.918237             0.00828003089            0.000490206647           
       1.920878             0.00843504283            0.000492748563           
       1.923518             0.00814814232            0.000484501642           
       1.926158             0.00816261628            0.000478639065           
       1.928799             0.00895619941            0.000495563063           
       1.931439             0.00802113579            0.000481281601           
       1.934079             0.00761220746            0.000488767643           
       1.936720             0.00835135641            0.000474334473           
       1.939360             0.00925092145            0.000532606342           
       1.942001             0.00938375323            0.000491653204           
       1.944641             0.00863706745            0.000480977991           
       1.947281             0.00849181964            0.000472520611           
       1.949922             0.00822425736            0.000480321309           
       1.952562             0.00766612287            0.000478272737           
       1.955202             0.00784653762            0.000483278033           
       1.957843             0.00892558172            0.000502071043           
       1.960483             0.00703570384            0.000466041041           
       1.963124             0.00781157674            0.000480991434           
       1.965764             0.00889183254            0.000483936325           
       1.968404             0.00849793334            0.000468625971           
       1.971045             0.00891565682            0.000489391018           
       1.973685             0.00827926067             0.00049467468           
       1.976326             0.00865056922            0.000498696159           
       1.978966             0.00857368366            0.000500832018           
       1.981606             0.00773990694             0.00048578104           
       1.984247             0.00878009541            0.000513993476           
       1.986887             0.00842299624            0.000497402015           
       1.989527             0.00743985042            0.000462438398           
       1.992168              0.0080690158            0.000499695743           
       1.994808             0.00769816865             0.00048598564           
       1.997449              0.0082575542            0.000492996331           
       2.000089             0.00840820921            0.000495500924           
       2.002729             0.00813087921            0.000487552921           
       2.005370             0.00783959298            0.000473588959           
       2.008010             0.00731920976            0.000477572175           
       2.010650             0.00882520915            0.000528321184           
       2.013291             0.00788775916            0.000479217057           
       2.015931             0.00852256919            0.000494606513           
       2.018572              0.0079353898            0.000510479003           
       2.021212             0.00766130356            0.000492573779           
       2.023852             0.00722148341             0.00045261836           
       2.026493              0.0075749638            0.000484274557           
       2.029133             0.00784159007            0.000482808096           
       2.031774             0.00779952981            0.000505335646           
       2.034414             0.00762076577            0.000459619483           
       2.037054             0.00779833845            0.000476728271           
       2.039695             0.00703076709            0.000449240331           
       2.042335             0.00836335308            0.000509184177           
       2.044975             0.00789321979            0.000488666741           
       2.047616             0.00709521721            0.000462155764           
       2.050256             0.00823785287            0.000502693407           
       2.052897              0.0073117457            0.000482325559           
       2.055537             0.00761426489            0.000475694908           
       2.058177             0.00697683226            0.000445908702           
       2.060818             0.00749244052            0.000484077171           
       2.063458             0.00844591671            0.000535593706           
       2.066098             0.00743985004            0.000474198417           
       2.068739             0.00610476221            0.000436225575           
       2.071379             0.00753827311            0.000497386554           
       2.074020             0.00720904111            0.000475832781           
       2.076660             0.00778539897            0.000498485747           
       2.079300             0.00753337438            0.000502365606           
       2.081941             0.00749126323            0.000458685528           
       2.084581             0.00787710478            0.000496458641           
       2.087222              0.0072437031            0.000459133813           
       2.089862             0.00748296377             0.00050825833           
       2.092502              0.0076544645            0.000498297777           
       2.095143             0.00736181279            0.000504634447           
       2.097783             0.00755018571            0.000494782343           
       2.100423             0.00771256561            0.000481867925           
       2.103064              0.0074530704             0.00049151927           
       2.105704             0.00754629897             0.00049213406           
       2.108345             0.00808693964            0.000489453061           
       2.110985             0.00777403416            0.000512557801           
       2.113625             0.00729101456            0.000500710868           
       2.116266             0.00786656449            0.000527477456           
       2.118906             0.00724562374            0.000471779475           
       2.121546             0.00750044519            0.000470839049           
       2.124187             0.00800872941            0.000510707578           
       2.126827             0.00705890726            0.000484818776           
       2.129468             0.00693378841            0.000481730234           
       2.132108             0.00757491645            0.000489876276           
       2.134748             0.00763332996            0.000489853546           
       2.137389             0.00635991549            0.000466468837           
       2.140029             0.00689677214            0.000434880149           
       2.142670             0.00723318206            0.000475965976           
       2.145310             0.00673227435            0.000446937536           
       2.147950             0.00682405424            0.000463145594           
       2.150591             0.00802010401             0.00049702126           
       2.153231             0.00718343568            0.000484185556           
       2.155871             0.00763972721            0.000482382646           
       2.158512             0.00799896094            0.000515029942           
       2.161152             0.00659565866            0.000453019831           
       2.163793             0.00786630363            0.000492508712           
       2.166433             0.00787386017            0.000505997424           
       2.169073             0.00762300206            0.000486787423           
       2.171714             0.00756508089            0.000481309424           
       2.174354             0.00694649639             0.00048192381           
       2.176995             0.00762648501            0.000502836072           
       2.179635              0.0070527181            0.000510975908           
       2.182275             0.00843474143            0.000527597874           
       2.184916             0.00764780634            0.000485237461           
       2.187556             0.00751307376            0.000476123785           
       2.190196             0.00824011855            0.000521060885           
       2.192837             0.00743418753            0.000492231191           
       2.195477             0.00737715478            0.000467480412           
       2.198118             0.00701023992            0.000467383515           
       2.200758             0.00803576136            0.000513383766           
       2.203398             0.00713741418            0.000486932264           
       2.206039             0.00737536207            0.000468458956           
       2.208679             0.00716393336            0.000472440438           
       2.211319             0.00797153366            0.000501232455           
       2.213960             0.00761771057             0.00049654734           
       2.216600             0.00824853725            0.000534512701           
       2.219241             0.00715864657             0.00047590486           
       2.221881             0.00794998374            0.000502550626           
       2.224521             0.00799779009            0.000510236044           
       2.227162             0.00715741618            0.000473021028           
       2.229802             0.00755596351            0.000501226391           
       2.232443             0.00747048048             0.00049052211           
       2.235083             0.00645672216            0.000469478347           
       2.237723              0.0079241933            0.000499111684           
       2.240364             0.00713297558            0.000485204788           
       2.243004             0.00796112739            0.000508506286           
       2.245644             0.00750130493            0.000498543294           
       2.248285             0.00745459059             0.00048703238           
       2.250925             0.00712663926            0.000479091549           
       2.253566             0.00706470226            0.000509955005           
       2.256206              0.0071834107            0.000503939656           
       2.258846              0.0068511017            0.000468166371           
       2.261487             0.00790191078            0.000527724062           
       2.264127              0.0076027508             0.00049992666           
       2.266767              0.0069230362             0.00048976592           
       2.269408              0.0071393399            0.000499394901           
       2.272048             0.00805534466            0.000527299078           
       2.274689             0.00721958178            0.000505773421           
       2.277329             0.00659509945            0.000455156457           
       2.279969              0.0073766648            0.000512392022           
       2.282610             0.00702847091             0.00048624225           
       2.285250             0.00727546355             0.00047350678           
       2.287891             0.00744707411            0.000513623228           
       2.290531             0.00710250168            0.000508342809           
       2.293171             0.00708334929            0.000494503779           
       2.295812             0.00774049274            0.000514855499           
       2.298452             0.00662645263            0.000498153211           
       2.301092             0.00708781749            0.000478687184           
       2.303733              0.0068144868            0.000488305153           
       2.306373             0.00776983898            0.000529623115           
       2.309014               0.007283152              0.0005027647           
       2.311654             0.00748896137            0.000532020161           
       2.314294             0.00700115017            0.000473919743           
       2.316935             0.00676541767            0.000467797578           
       2.319575             0.00729141886            0.000508840937           
       2.322215             0.00640072083            0.000496853711           
       2.324856             0.00704626438            0.000479287728           
       2.327496             0.00703413875            0.000509194666           
       2.330137             0.00699326756            0.000485843548           
       2.332777              0.0077126052            0.000526090538           
       2.335417             0.00675667997            0.000477711051           
       2.338058             0.00683533083            0.000494836484           
       2.340698             0.00727259803            0.000506407805           
       2.343339             0.00758512367            0.000528555199           
       2.345979             0.00758572883            0.000500075206           
       2.348619             0.00726301648            0.000507208982           
       2.351260             0.00763051024            0.000516853552           
       2.353900             0.00706171415            0.000495641707           
       2.356540              0.0076739719             0.00051594802           
       2.359181             0.00694201194            0.000483845663           
       2.361821             0.00714228702            0.000474075999           
       2.364462             0.00626882136            0.000464517412           
       2.367102             0.00738485249            0.000518118858           
       2.369742              0.0066882206            0.000518996447           
       2.372383             0.00681655623            0.000474437352           
       2.375023             0.00859063826            0.000559888216           
       2.377663             0.00683927414            0.000477659268           
       2.380304             0.00707013159            0.000493751676           
       2.382944             0.00701193098            0.000468343183           
       2.385585             0.00714926964            0.000504364027           
       2.388225             0.00666632273            0.000484742271           
       2.390865             0.00771687219            0.000516183519           
       2.393506             0.00763630885            0.000503794559           
       2.396146             0.00714903395            0.000527059409           
       2.398787             0.00729344882            0.000490607601           
       2.401427             0.00709115344            0.000466935937           
       2.404067             0.00752083365            0.000491600808           
       2.406708             0.00673757904            0.000459718688           
       2.409348             0.00620914002            0.000468108714           
       2.411988             0.00686864851            0.000482385979           
       2.414629             0.00735033432             0.00051455503           
       2.417269              0.0068940062            0.000504144752           
       2.419910             0.00729820634            0.000519917071           
       2.422550              0.0073976408            0.000500801715           
       2.425190             0.00797303422            0.000548043003           
       2.427831             0.00704720178             0.00051234555           
       2.430471             0.00686652634            0.000481810443           
       2.433112             0.00737498117            0.000486228914           
       2.435752             0.00735892242            0.000514021449           
       2.438392             0.00651257695            0.000466734422           
       2.441033             0.00691139482            0.000509565191           
       2.443673             0.00791011979            0.000545559572           
       2.446313             0.00733794827            0.000525921249           
       2.448954             0.00815809537            0.000527993404           
       2.451594             0.00785460172            0.000557056248           
       2.454235             0.00688490315            0.000489335718           
       2.456875             0.00837468642            0.000564706451           
       2.459515             0.00752939973             0.00054931103           
       2.462156             0.00767836778            0.000523731457           
       2.464796             0.00717462999            0.000499728805           
       2.467436              0.0072881391            0.000520850184           
       2.470077              0.0073805434            0.000496791142           
       2.472717             0.00707046149            0.000488349518           
       2.475358             0.00664258825            0.000478278127           
       2.477998             0.00729599608            0.000492799373           
       2.480638             0.00719711439            0.000498145604           
       2.483279             0.00761455469             0.00053552764           
       2.485919             0.00754486566            0.000513736183           
       2.488560             0.00689010444            0.000489566979           
       2.491200              0.0073833515            0.000521857303           
       2.493840             0.00688565602            0.000533257626           
       2.496481             0.00758264106            0.000550442308           
       2.499121             0.00565580777            0.000462391459           
       2.501761             0.00705454612            0.000523255041           
       2.504402             0.00765048639              0.0005369472           
       2.507042              0.0076487796             0.00053291008           
       2.509683             0.00723499432            0.000510373567           
       2.512323             0.00714127465             0.00053253602           
       2.514963             0.00765606141            0.000544584063           
       2.517604              0.0062458553            0.000510399993           
       2.520244             0.00670687671            0.000495846195           
       2.522884             0.00696925456            0.000512680522           
       2.525525             0.00879697483            0.000582534823           
       2.528165             0.00694408205            0.000509494704           
       2.530806             0.00828314594             0.00056615396           
       2.533446             0.00932625633            0.000587923042           
       2.536086             0.00818224014            0.000545755747           
       2.538727             0.00700145569            0.000484320166           
       2.541367              0.0065099131            0.000471610048           
       2.544008             0.00637036328            0.000481809363           
       2.546648             0.00716015799             0.00051956584           
       2.549288             0.00622734797            0.000494414295           
       2.551929             0.00645108992            0.000495196434           
       2.554569              0.0067712626            0.000488775895           
       2.557209             0.00762144461            0.000523315816           
       2.559850             0.00725165125            0.000512101494           
       2.562490              0.0073685274            0.000533532627           
       2.565131              0.0075587478            0.000560285533           
       2.567771             0.00845637564            0.000571375066           
       2.570411             0.00664413292            0.000500983812           
       2.573052             0.00634042256            0.000495562938           
       2.575692             0.00779680816            0.000546210794           
       2.578332             0.00695128436            0.000517876969           
       2.580973             0.00753602765            0.000534088662           
       2.583613              0.0069953176            0.000502319193           
       2.586254             0.00676499662            0.000493294031           
       2.588894             0.00631541885            0.000494948129           
       2.591534             0.00711013636            0.000543646571           
       2.594175             0.00780004889            0.000558666545           
       2.596815             0.00622441371            0.000502003119           
       2.599456             0.00622985611              0.0004762553           
       2.602096               0.006383389             0.00048575701           
       2.604736             0.00743577683             0.00053670355           
       2.607377              0.0071623392            0.000512861559           
       2.610017             0.00665994863            0.000485893246           
       2.612657             0.00717787859            0.000536540541           
       2.615298              0.0073765292            0.000531031521           
       2.617938             0.00634144721             0.00052670628           
       2.620579             0.00757776468            0.000552728063           
       2.623219             0.00663109196            0.000516314077           
       2.625859             0.00633723789            0.000490753062           
       2.628500             0.00768425068            0.000536855956           
       2.631140             0.00684361566            0.000514446868           
       2.633780             0.00729287612            0.000530602675           
       2.636421             0.00676253874            0.000523511014           
       2.639061             0.00724568589            0.000510126627           
       2.641702             0.00687010939            0.000508229229           
       2.644342             0.00743442298            0.000530943161           
       2.646982             0.00714257606             0.00051263731           
       2.649623             0.00763137023            0.000555301286           
       2.652263             0.00664387692            0.000512929957           
       2.654904             0.00766202761            0.000551386115           
       2.657544             0.00640150047            0.000474709518           
       2.660184             0.00641547671            0.000502929025           
       2.662825              0.0059326167            0.000494852582           
       2.665465             0.00621320044            0.000489791021           
       2.668105             0.00642823093            0.000525116033           
       2.670746             0.00760898678            0.000527769984           
       2.673386             0.00845746479             0.00057343362           
       2.676027              0.0086592039            0.000570920162           
       2.678667             0.00865210451            0.000556846946           
       2.681307              0.0111128474            0.000620076595           
       2.683948              0.0161067131            0.000767005296           
       2.686588              0.0119582973            0.000649930658           
       2.689229              0.0110408242            0.000610236497           
       2.691869              0.0100187253            0.000614381026           
       2.694509             0.00909531267            0.000585705025           
       2.697150             0.00771066558            0.000530532861           
       2.699790             0.00717881857            0.000536663144           
       2.702430             0.00788255434            0.000537541561           
       2.705071             0.00604673148            0.000486485691           
       2.707711             0.00686740263            0.000503193542           
       2.710352             0.00740401185            0.000552068926           
       2.712992             0.00752326572            0.000566786805           
       2.715632             0.00786404004            0.000537643633           
       2.718273             0.00651850707            0.000507292722           
       2.720913             0.00615086361            0.000491377356           
       2.723553              0.0071254907            0.000532425259           
       2.726194             0.00747382993            0.000570001665           
       2.728834              0.0061734007            0.000518287174           
       2.731475             0.00766065526              0.0005328459           
       2.734115             0.00798180471            0.000560780376           
       2.736755             0.00718721434            0.000536515803           
       2.739396             0.00651192372            0.000507730577           
       2.742036             0.00676039237            0.000541414895           
       2.744677             0.00676353345            0.000525443723           
       2.747317             0.00714982187            0.000536388015           
       2.749957             0.00667554178            0.000521929534           
       2.752598             0.00679882444            0.000532443267           
       2.755238              0.0078422899            0.000582167482           
       2.757878             0.00790496209            0.000579378739           
       2.760519             0.00819498311              0.0005836563           
       2.763159             0.00952996838            0.000623113321           
       2.765800             0.00694789301            0.000507030003           
       2.768440             0.00683021845            0.000506421419           
       2.771080             0.00766183325            0.000540842949           
       2.773721             0.00802439845             0.00056776963           
       2.776361             0.00822982982            0.000582923968           
       2.779001             0.00799792967            0.000595110854           
       2.781642             0.00697508372            0.000551659885           
       2.784282             0.00692533392            0.000558728061           
       2.786923             0.00674689738            0.000556338751           
       2.789563             0.00662809613             0.00053108118           
       2.792203             0.00653953293            0.000503933338           
       2.794844             0.00590410299            0.000524784221           
       2.797484             0.00676770528            0.000530254377           
       2.800125             0.00697255076            0.000565937938           
       2.802765             0.00694364295            0.000555047703           
       2.805405             0.00713762233            0.000564651957           
       2.808046             0.00664659736            0.000554462399           
       2.810686             0.00671594893            0.000512137597           
       2.813326             0.00644024977            0.000520936148           
       2.815967             0.00762285215            0.000582864818           
       2.818607             0.00746892168            0.000550568299           
       2.821248             0.00672256387             0.00051149153           
       2.823888             0.00796792664            0.000578031624           
       2.826528             0.00619836361            0.000493736153           
       2.829169             0.00750037588            0.000568890538           
       2.831809             0.00589265009            0.000511104916           
       2.834449             0.00628013346             0.00053097631           
       2.837090             0.00757586273            0.000563264752           
       2.839730             0.00614136539            0.000504665232           
       2.842371             0.00719956836            0.000547205545           
       2.845011             0.00769404729            0.000570194098           
       2.847651             0.00692226221            0.000541504871           
       2.850292             0.00725107829            0.000559655901           
       2.852932             0.00734058325            0.000575371231           
       2.855573              0.0062684205            0.000515758362           
       2.858213             0.00758559676            0.000595801445           
       2.860853             0.00719739527            0.000539864252           
       2.863494              0.0066725138            0.000538187017           
       2.866134              0.0069760457            0.000571960237           
       2.868774             0.00638287023            0.000537690216           
       2.871415             0.00663120557             0.00055658692           
       2.874055             0.00708969289            0.000550112942           
       2.876696             0.00620316153            0.000528488679           
       2.879336             0.00679750273            0.000533205043           
       2.881976             0.00738762527            0.000573339928           
       2.884617             0.00745432157            0.000567463907           
       2.887257             0.00772490439            0.000580652915           
       2.889897             0.00715002713            0.000547132395           
       2.892538             0.00652285295            0.000572494352           
       2.895178             0.00725966781            0.000545640896           
       2.897819             0.00605013221            0.000508126482           
       2.900459              0.0073367955            0.000548669663           
       2.903099             0.00698470176            0.000529862605           
       2.905740             0.00587479344            0.000498515774           
       2.908380              0.0067045325            0.000538609021           
       2.911021             0.00616051885            0.000524689243           
       2.913661             0.00723062585            0.000568265549           
       2.916301             0.00715524704            0.000565834812           
       2.918942             0.00625986263            0.000506239336           
       2.921582             0.00654602925            0.000541643757           
       2.924222             0.00698362906            0.000542004538           
       2.926863             0.00735391165            0.000579333906           
       2.929503             0.00700450603            0.000572102088           
       2.932144             0.00597804675            0.000507350386           
       2.934784             0.00649139638            0.000520016581           
       2.937424              0.0063357931            0.000519020729           
       2.940065             0.00689778758            0.000516588198           
       2.942705             0.00783661637            0.000549931584           
       2.945346             0.00705134236            0.000553604018           
       2.947986             0.00650408298            0.000542137153           
       2.950626              0.0063909007             0.00053437364           
       2.953267             0.00730887344            0.000562231104           
       2.955907             0.00767251276            0.000597570336           
       2.958547             0.00700532563            0.000539051155           
       2.961188             0.00727782115            0.000573214357           
       2.963828             0.00721294041            0.000558204687           
       2.966469             0.00690549787            0.000535799469           
       2.969109             0.00779814964            0.000577814047           
       2.971749             0.00680980865            0.000536589294           
       2.974390             0.00675077671            0.000525006721           
       2.977030             0.00824848515            0.000593299435           
       2.979670             0.00880775519            0.000596341511           
       2.982311             0.00833438293            0.000601239316           
       2.984951              0.0072250871            0.000532418187           
       2.987592             0.00739775507            0.000549533162           
       2.990232             0.00756145022            0.000577797052           
       2.992872             0.00720031573             0.00053109644           
       2.995513             0.00783784098            0.000542101786           
       2.998153              0.0114650659            0.000666663952           
       3.000794              0.0128442166            0.000683468013           
       3.003434              0.0117338485            0.000654244167           
       3.006074              0.0515311206             0.00135183696           
       3.008715               0.123639662             0.00202132822           
       3.011355                0.17999777             0.00235187392           
       3.013995              0.0894916866              0.0016628452           
       3.016636              0.0643772955              0.0013810666           
       3.019276               0.132405135             0.00194690697           
       3.021917               0.525312933             0.00372883377           
       3.024557                1.70308198              0.0066010304           
       3.027197                1.12122381             0.00522181258           
       3.029838               0.514602106             0.00358779733           
       3.032478               0.255051805             0.00252841106           
       3.035118              0.0710841204             0.00135271892           
       3.037759               0.100953904             0.00160998611           
       3.040399               0.138206462             0.00194314182           
       3.043040               0.557761309             0.00395144065           
       3.045680               0.375762932             0.00305149312           
       3.048320              0.0825617496             0.00146147718           
       3.050961               0.106292282             0.00168748217           
       3.053601              0.0853704802             0.00145654246           
       3.056242              0.0599825845             0.00129808141           
       3.058882              0.0503796516             0.00127613448           
       3.061522              0.0380517767             0.00108812331           
       3.064163              0.0494105488             0.00122432566           
       3.066803               0.111636011              0.0019374425           
       3.069443               0.109000621             0.00200299186           
       3.072084              0.0483033289             0.00129835412           
       3.074724              0.0398473808             0.00131694882           
       3.077365              0.0809498648             0.00194307989           
       3.080005              0.0160753599            0.000870796999           
       3.082645              0.0109010022            0.000753313072           
       3.085286              0.0138541899            0.000855944972           
       3.087926              0.0087570639            0.000675265239           
       3.090566               0.011281831            0.000750974975           
       3.093207              0.0114164943            0.000786117253           
       3.095847             0.00959190178            0.000690650733           
       3.098488             0.00880744438             0.00073383021           
       3.101128             0.00923977032            0.000756458767           
       3.103768              0.0099462525              0.0007700802           
       3.106409             0.00892735923            0.000776460075           
       3.109049             0.00819810015            0.000714047853           
       3.111690             0.00841196987            0.000710885004           
       3.114330             0.00919337954             0.00075897954           
       3.116970             0.00763944971            0.000697179991           
       3.119611              0.0123313359            0.000942839337           
       3.122251              0.0208884928              0.0012836062           
       3.124891              0.0341655037             0.00165690944           
       3.127532              0.0217774192              0.0012941248           
       3.130172               0.015150823             0.00109807325           
       3.132813             0.00883967268            0.000825718092           
       3.135453             0.00871584606             0.00081316055           
       3.138093             0.00729111185            0.000805863533           
       3.140734             0.00727280677            0.000742537283           
       3.143374             0.00645067135            0.000739550836           
       3.146014              0.0087164284            0.000925480534           
       3.148655             0.00795656776            0.000821965415           
       3.151295              0.0061601516            0.000770732236           
       3.153936             0.00745955144            0.000819271314           
       3.156576              0.0062157109            0.000737681618           
       3.159216             0.00661373187            0.000764739793           
       3.161857             0.00550163489            0.000694648641           
       3.164497             0.00765288174            0.000860826131           
       3.167138             0.00773649001            0.000894288903           
       3.169778             0.00686361929            0.000828439207           
       3.172418             0.00645952881            0.000795507672           
       3.175059             0.00644469328            0.000704440891           
       3.177699             0.00576581164            0.000705577637           
       3.180339             0.00612592427            0.000779221881           
       3.182980             0.00559538233            0.000769959832           
       3.185620             0.00493116737            0.000736127073           
       3.188261             0.00569302557            0.000805065642           
       3.190901              0.0078134314            0.000867423986           
       3.193541             0.00678824118            0.000849556381           
       3.196182             0.00472360445            0.000738546492           
       3.198822              0.0065749974            0.000871634499           
       3.201463             0.00536501714            0.000773792806           
       3.204103              0.0053926882            0.000771065755           
       3.206743              0.0059432914            0.000809396845           
       3.209384             0.00513564861            0.000812898078           
       3.212024              0.0065811479            0.000857928919           
       3.214664             0.00810123158             0.00108240774           
       3.217305             0.00624289965            0.000903217242           
       3.219945              0.0062337036            0.000928958718           
       3.222586             0.00513635135             0.00080317117           
       3.225226             0.00572658381            0.000940794762           
       3.227866             0.00630647015            0.000902363819           
       3.230507             0.00621801881            0.000928815768           
       3.233147             0.00506511787            0.000845066965           
       3.235787              0.0054359622            0.000895920317           
       3.238428             0.00409908002            0.000839550347           
       3.241068             0.00555323479            0.000913716054           
       3.243709             0.00705213513             0.00106381392           
       3.246349             0.00666822388            0.000942999658           
       3.248989             0.00424211847             0.00088810813           
       3.251630             0.00621328765             0.00103502101           
       3.254270             0.00603866088            0.000911936352           
       3.256911             0.00656049252              0.0010371256           
       3.259551             0.00494931067             0.00096980742           
       3.262191             0.00594632674             0.00108581207           
       3.264832             0.00451806191            0.000988918251           
       3.267472             0.00645111033             0.00110854712           
       3.270112              0.0064631815             0.00122623147           
       3.272753             0.00505622501            0.000992743982           
       3.275393             0.00548344667               0.001054871           
       3.278034             0.00848858532             0.00131321139           
       3.280674             0.00381873366            0.000955788892           
       3.283314             0.00479433897            0.000957803186           
       3.285955             0.00958172366             0.00139707916           
       3.288595             0.00606471065             0.00123657048           
       3.291235             0.00131194625            0.000591236658           
       3.293876             0.00711223653             0.00139637733           
       3.296516               0.006563836             0.00128783414           
       3.299157             0.00766432397             0.00137412567           
       3.301797             0.00641643789             0.00143417511           
       3.304437             0.00649097731             0.00124973839           
       3.307078             0.00522174514              0.0012347547           
       3.309718             0.00496580253              0.0012428619           
       3.312359             0.00526608774             0.00128019271           
       3.314999             0.00542919644             0.00127982593           
       3.317639             0.00468600699             0.00113713957           
       3.320280             0.00372389729             0.00107777653           
       3.322920             0.00543008048             0.00132337149           
       3.325560             0.00640893295             0.00143868745           
       3.328201             0.00654660412             0.00130955418           
       3.330841             0.00385208085             0.00122257642           
       3.333482             0.00589746677             0.00142987598           
       3.336122             0.00416488096             0.00120217172           
       3.338762             0.00371185057             0.00131099389           
       3.341403             0.00462525652             0.00139837037           
       3.344043             0.00733802972             0.00169103492           
       3.346683             0.00406518697              0.0012849735           
       3.349324             0.00461280977             0.00153896982           
       3.351964             0.00284445182             0.00127794358           
       3.354605             0.00376649802             0.00168180435           
       3.357245             0.00363906194             0.00149127962           
       3.359885             0.00392586825              0.0012397034           
       3.362526             0.00361819248             0.00148831204           
       3.365166             0.00862204004             0.00216697556           
       3.367807             0.00355476591             0.00178071945           
       3.370447             0.00489005796             0.00173248956           
       3.373087             0.00492286804              0.0018588741           
       3.375728             0.00353809556             0.00177854512           
       3.378368             0.00380901655             0.00273877551           
       3.381008             0.00106631368             0.00108036532           
       3.383649             0.00421650774             0.00172341176           
       3.386289             0.00687863579             0.00260521939           
       3.388930             0.00498072634             0.00350657231           
       3.391570              0.0061142159             0.00274833287           
       3.394210             0.00197956552             0.00197903673           
       3.396851             0.00970843663             0.00490249728           
       3.399491             0.00241093527             0.00244375452           
       3.402131             0.00489638659             0.00492718809           
       3.404772           -2.65013842e-05                         0           
       3.407412                       nan                       nan           
       3.410053              0.0092832792             0.00960872917           
       3.412693                       nan                       nan           
       3.415333             0.00901874885             0.00947988265           
