################################################################################
# EDF_DataBlockID                     0.Image.Psd
# EDF_BinarySize                      2105344
# EDF_HeaderSize                      2560
# ByteOrder                           LowByteFirst
# DataType                            FloatValue
# Dim_1                               512
# Dim_2                               1028
# Image                               0
# HeaderID                            EH:000000:000000:000000
# Size                                2105344
# Center_1                            304.9000
# Center_2                            588.7000
# Comment                             Xenocs_Cell_Window - 20251028_20perc_iodine_1.23mg
# DDummy                              0.6
# Date                                2025-10-28T14:38:19
# Delta                               21.910000
# Dummy                               -1.5
# ExposureTime                        360
# Gamma                               15.360000
# Intensity1                          8.70848e-10
# PSize_1                             7.5e-05
# PSize_2                             7.5e-05
# Pressure                            0.0450325
# SampleDistance                      0.115750
# SampleEnvKind                       large
# SampleEnvPN                         ElectroChemical cell
# SampleEnvSN                         1141
# Thickness                           0
# Wavelength                          1.541891e-10
# Wavelength                          1.54189e-10
# aux                                 0
# aux_dial                            0.002375
# beamx                               588.434
# beamx_dial                          588.434
# beamz                               657.808
# beamz_dial                          657.808
# det0x                               0
# det0x_dial                          6.36945
# det0xvd                             0
# det0xvd_dial                        0
# det0y                               450.002
# det0y_dial                          481.635
# det0z                               0
# det0z_dial                          1.23302
# det0zvd                             0
# det0zvd_dial                        0
# mag                                 1.818
# mag_dial                            1.818
# om                                  0.2499
# om_dial                             -0.610199
# phi                                 -0.0120535
# phi_dial                            0
# ry                                  0.599993
# ry_dial                             0.599993
# s1bot                               0.8
# s1bot_dial                          -1.66094
# s1hl                                0.8
# s1hl_dial                           -0.608437
# s1hr                                0.8
# s1hr_dial                           0.970938
# s1top                               0.8
# s1top_dial                          -0.461562
# s2bot                               0.45
# s2bot_dial                          1.36109
# s2hl                                0.45
# s2hl_dial                           -0.83375
# s2hr                                0.45
# s2hr_dial                           -0.118594
# s2top                               0.45
# s2top_dial                          1.44734
# w2theta                             32
# w2theta_dial                        32
# waxsch                              19.2605
# waxsch_dial                         -32.7355
# waxsh                               137.085
# waxsh_dial                          -43.5338
# waxsth                              26.0607
# waxsth_dial                         -19.4086
# waxsz                               67.0407
# waxsz_dial                          -23.7954
# wind                                65.9854
# wind_dial                           66.0041
# wpsi                                124
# wpsi_dial                           124
# wstod                               115
# wstod_dial                          115
# x                                   0
# x_dial                              1.00969
# z                                   0
# z_dial                              13.3172
# CountCutoff                         6807993
# DetectorModel                       Dectris EIGER2 Si 500K, S/N E-01-0554
# ThresholdSetting                    4023.88989258
# Saturation                          0
# FlatField                           Corrected
# BackgroundReductionExtra            0.02
# BackgroundCorrectionConstant        0.0026712
# Detector                            0
# Monitor                             0
# Pil_Roi0                            0
# SumForIntensity1                    3.13505e+08
# TransmittedFlux                     870848
# det                                 0
# mon                                 0
# pilai0                              3.13505e+08
# pilai1                              819702
# pilct0                              5.40595e+08
# pilct1                              819702
# pilroi0                             0
# pilroi1                             0
# sec                                 1
# title                               20251028_20perc_iodine_1.23mg_1_00002.edf
# usaxs0                              0
# Operation                           Azimuthal average I(q)
# Error_model                         ErrorModel.poisson
# Geometrical_correction              True
# Transmission_correction             True
# Thickness_correction                False
# Binning mode                        Uniform
# Binning factor                      1.0
# Psi                                 0.0
# Omega                               0.2499
# MaskInvalidPixels                   True
# DetectorEdge                        3
# MaskFiles                           ['WAXS_corrected.edf']
################################################################################
    q(A⁻¹)                Intensity(a.u.)            Sigma_I(a.u.)            
       0.693100           -2.33142899e-05                         0           
       0.695741             0.00548327086             0.00399181548           
       0.698381           -2.32950339e-05                         0           
       0.701021           -2.32775742e-05                         0           
       0.703662           -2.32668666e-05                         0           
       0.706302             0.00499410077             0.00294809122           
       0.708942             0.00275754534             0.00282744818           
       0.711583             0.00649986617             0.00375899133           
       0.714223             0.00572737698             0.00407377389           
       0.716864             0.00855864991             0.00325831037           
       0.719504             0.00287182007             0.00203674326           
       0.722144             0.00493003506             0.00247132292           
       0.724785              0.0054483179             0.00207236914           
       0.727425             0.00577373768              0.0028860541           
       0.730065             0.00570064267             0.00202851896           
       0.732706             0.00658893413             0.00183135901           
       0.735346             0.00689542331             0.00244213959           
       0.737987             0.00597713732             0.00160669597           
       0.740627              0.0143275163             0.00371158172           
       0.743267             0.00558564972             0.00155221752           
       0.745908             0.00713648109             0.00190355976           
       0.748548             0.00562358319             0.00155756239           
       0.751189             0.00548722855              0.0020731558           
       0.753829             0.00791348124             0.00228857059           
       0.756469             0.00729327928             0.00177163925           
       0.759110             0.00237226233             0.00106479441           
       0.761750             0.00742799784             0.00166602285           
       0.764390             0.00489266244             0.00141521741           
       0.767031             0.00887150916             0.00165024509           
       0.769671             0.00624503588             0.00172715695           
       0.772312             0.00661700965             0.00135346357           
       0.774952             0.00655013348             0.00181844629           
       0.777592             0.00667594061             0.00133717678           
       0.780233             0.00348966886             0.00116640259           
       0.782873             0.00604177637             0.00146784879           
       0.785513             0.00734750327             0.00173050423           
       0.788154             0.00735180714             0.00144805045           
       0.790794             0.00487587531             0.00140984696           
       0.793435             0.00691415264             0.00150822236           
       0.796075             0.00825263995             0.00158729813           
       0.798715             0.00807552704             0.00185549693           
       0.801356             0.00687831967             0.00147384528           
       0.803996             0.00754914084             0.00157417204           
       0.806637             0.00641447811             0.00115477219           
       0.809277              0.0068320741             0.00128995117           
       0.811917             0.00831905025              0.0013306735           
       0.814558             0.00915788632             0.00145104913           
       0.817198             0.00834356492             0.00131584688           
       0.819838             0.00699985104             0.00121979302           
       0.822479             0.00820103759              0.0015504053           
       0.825119             0.00529663674             0.00106048531           
       0.827760             0.00787306882             0.00130969275           
       0.830400             0.00514574899            0.000996544976           
       0.833040             0.00698245613             0.00121621505           
       0.835681             0.00906847922             0.00157568205           
       0.838321             0.00616603062             0.00109053074           
       0.840961             0.00979203078             0.00149732973           
       0.843602             0.00673207742             0.00113852952           
       0.846242             0.00674190624              0.0011391904           
       0.848883             0.00745759335             0.00122611466           
       0.851523             0.00803551406             0.00125692696           
       0.854163             0.00823087977             0.00135283712           
       0.856804             0.00539960155            0.000985210823           
       0.859444             0.00705346483             0.00110329084           
       0.862085             0.00844140638             0.00125796396           
       0.864725             0.00707412799             0.00117853179           
       0.867365             0.00948212597             0.00126524201           
       0.870006              0.0051933126            0.000892279386           
       0.872646             0.00844089804             0.00119288536           
       0.875286             0.00623242968            0.000986134339           
       0.877927             0.00594689091            0.000929519926           
       0.880567             0.00701980545             0.00104627182           
       0.883208             0.00673306506             0.00101502691           
       0.885848             0.00819005084             0.00116235205           
       0.888488             0.00651861488            0.000972626975           
       0.891129             0.00716858419             0.00104729138           
       0.893769             0.00740202106             0.00101847349           
       0.896410              0.0081093432            0.000993908895           
       0.899050             0.00942560284             0.00117840246           
       0.901690             0.00735069832             0.00113356679           
       0.904331             0.00604721636            0.000911520165           
       0.906971             0.00904496369             0.00118594986           
       0.909611             0.00668229203            0.000927939703           
       0.912252             0.00728115532             0.00100049136           
       0.914892             0.00705748324             0.00107639972           
       0.917533             0.00614736799            0.000950348106           
       0.920173             0.00732864837            0.000962733333           
       0.922813             0.00736636449             0.00101287649           
       0.925454             0.00710467708            0.000895720451           
       0.928094             0.00691942326            0.000943707602           
       0.930734             0.00670904289              0.0010004409           
       0.933375              0.0076023254              0.0010544934           
       0.936015             0.00806533573            0.000986438461           
       0.938656             0.00737694578             0.00101204807           
       0.941296             0.00706305995            0.000897469019           
       0.943936             0.00843920574            0.000962033189           
       0.946577             0.00790492593            0.000924926975           
       0.949217             0.00795242299            0.000853105707           
       0.951858             0.00770440689            0.000878995406           
       0.954498             0.00684008388            0.000958654439           
       0.957138             0.00771119666              0.0009642924           
       0.959779             0.00761752721            0.000944802942           
       0.962419             0.00786509825            0.000953647495           
       0.965059             0.00663893027            0.000921494104           
       0.967700             0.00630072526             0.00091943893           
       0.970340             0.00807601862              0.0009211301           
       0.972981             0.00696866757            0.000779581112           
       0.975621             0.00791368624             0.00088378604           
       0.978261              0.0073839699            0.000811160272           
       0.980902             0.00687077353              0.0009361795           
       0.983542             0.00589433934            0.000767881854           
       0.986182             0.00684889375            0.000812657153           
       0.988823             0.00810041057            0.000858164745           
       0.991463             0.00899316269            0.000964706775           
       0.994104             0.00826651049            0.000902265483           
       0.996744             0.00842095132            0.000928860678           
       0.999384             0.00778729201            0.000798846293           
       1.002025             0.00765667876            0.000884108999           
       1.004665             0.00819884819            0.000836083055           
       1.007306             0.00809069327            0.000826298948           
       1.009946             0.00931697733            0.000904320653           
       1.012586             0.00782973576            0.000807404526           
       1.015227             0.00922336554             0.00094144119           
       1.017867             0.00771981418            0.000827764024           
       1.020507             0.00708281537            0.000768009592           
       1.023148              0.0068768958            0.000816567998           
       1.025788             0.00796778848            0.000805929439           
       1.028429             0.00976096824             0.00093453761           
       1.031069              0.0080873195            0.000800497535           
       1.033709               0.008931293            0.000894229799           
       1.036350             0.00823912357            0.000771391635           
       1.038990              0.0084693871            0.000796468726           
       1.041630             0.00879764381            0.000846670523           
       1.044271             0.00884690199            0.000798488908           
       1.046911             0.00868313307            0.000832095917           
       1.049552             0.00889986829            0.000885065597           
       1.052192             0.00749004041            0.000741407238           
       1.054832             0.00820789409            0.000783183384           
       1.057473             0.00908634757            0.000812318189           
       1.060113             0.00795057477            0.000741065319           
       1.062754             0.00848294872            0.000781535823           
       1.065394             0.00780011167            0.000792331759           
       1.068034             0.00732435324            0.000698581759           
       1.070675             0.00754840426            0.000739768167           
       1.073315             0.00828986472            0.000786362206           
       1.075955             0.00857961898             0.00075523343           
       1.078596             0.00870959433            0.000808720352           
       1.081236             0.00910144852            0.000791631469           
       1.083877             0.00811502236            0.000740796935           
       1.086517             0.00799151911            0.000788283282           
       1.089157             0.00728883133            0.000781144886           
       1.091798             0.00836068565            0.000733470686           
       1.094438             0.00902426922            0.000759563096           
       1.097078             0.00946541357            0.000746094356           
       1.099719             0.00935393592            0.000802248787           
       1.102359             0.00808206123            0.000698371118           
       1.105000             0.00883040996            0.000816268683           
       1.107640             0.00924187134            0.000798462304           
       1.110280              0.0101930053            0.000765106965           
       1.112921             0.00861545644            0.000755617285           
       1.115561              0.0085217329            0.000714234068           
       1.118202              0.0102135889            0.000782663029           
       1.120842             0.00848246361            0.000749638748           
       1.123482              0.0081249335            0.000730465894           
       1.126123             0.00922974693            0.000746757183           
       1.128763             0.00967367972             0.00076974675           
       1.131403             0.00938118552            0.000730417545           
       1.134044             0.00903905194            0.000737768619           
       1.136684              0.0100711023            0.000830280964           
       1.139325              0.0113245225            0.000811054293           
       1.141965             0.00905666544            0.000730105737           
       1.144605             0.00929543655            0.000705275079           
       1.147246             0.00750255855             0.00064845446           
       1.149886              0.0100729226            0.000748700405           
       1.152527             0.00779135767            0.000668046852           
       1.155167             0.00944000247            0.000699417464           
       1.157807             0.00916553407            0.000738918032           
       1.160448             0.00916050885             0.00072137454           
       1.163088             0.00991663254            0.000715920009           
       1.165728             0.00865859119            0.000686843141           
       1.168369              0.0100225095            0.000745789104           
       1.171009              0.0101710555            0.000729111936           
       1.173650             0.00963657825            0.000728317755           
       1.176290             0.00940852546            0.000703257743           
       1.178930             0.00959631955            0.000696101408           
       1.181571             0.00907239744            0.000690254317           
       1.184211             0.00930187814            0.000701407688           
       1.186851             0.00956396535            0.000695349921           
       1.189492             0.00963443039            0.000693211625           
       1.192132             0.00974514782            0.000689360979           
       1.194773              0.0101835811            0.000707776529           
       1.197413              0.0095741602            0.000657545674           
       1.200053             0.00917460489            0.000660033786           
       1.202694              0.0103045623            0.000665183763           
       1.205334             0.00976325246              0.0006977772           
       1.207975              0.0101564331            0.000679327015           
       1.210615              0.0104458985            0.000760017492           
       1.213255             0.00939311723              0.0006453718           
       1.215896             0.00988523285            0.000674057745           
       1.218536               0.010047449            0.000653431665           
       1.221176              0.0090372056             0.00067375323           
       1.223817              0.0100288296            0.000666259745           
       1.226457             0.00878424496             0.00063611131           
       1.229098             0.00998984332             0.00067832696           
       1.231738              0.0110100188            0.000715625765           
       1.234378              0.0103738778            0.000652722759           
       1.237019              0.0102347638            0.000668099445           
       1.239659             0.00864465693            0.000608662245           
       1.242299              0.0092110657              0.0006203036           
       1.244940             0.00958861759            0.000615523967           
       1.247580              0.0105227085            0.000664527861           
       1.250221             0.00882258534            0.000604726921           
       1.252861               0.011160064            0.000647491175           
       1.255501               0.010441557            0.000680043234           
       1.258142              0.0108155272            0.000650365435           
       1.260782              0.0102526546             0.00064691689           
       1.263423              0.0100282004             0.00061477203           
       1.266063              0.0105577402            0.000646546557           
       1.268703              0.0108598449            0.000650290327           
       1.271344              0.0101425304            0.000649745502           
       1.273984              0.0120195695            0.000683129448           
       1.276624              0.0112107311            0.000647349802           
       1.279265              0.0103814295            0.000633291327           
       1.281905              0.0105508578            0.000641271658           
       1.284546              0.0114012753            0.000644343547           
       1.287186               0.010122424            0.000595660786           
       1.289826               0.010329704            0.000634172724           
       1.292467              0.0122521255            0.000675455475           
       1.295107              0.0102886518            0.000612822306           
       1.297747              0.0102423365            0.000585098649           
       1.300388              0.0104705423            0.000644897892           
       1.303028              0.0112578457            0.000638385111           
       1.305669              0.0107238274            0.000637895838           
       1.308309              0.0110028421            0.000639778029           
       1.310949              0.0120194928            0.000668010488           
       1.313590              0.0103341288            0.000600046467           
       1.316230              0.0104960655            0.000645330435           
       1.318871              0.0110487697            0.000648449022           
       1.321511               0.010971728            0.000634207086           
       1.324151              0.0114177468             0.00062778919           
       1.326792              0.0103284526            0.000600783473           
       1.329432              0.0100002198            0.000586988406           
       1.332072              0.0113985035             0.00061734458           
       1.334713              0.0126204685            0.000670444634           
       1.337353               0.010637707            0.000590305502           
       1.339994              0.0108650128            0.000626050201           
       1.342634              0.0107739906            0.000597822834           
       1.345274               0.011253862            0.000632318533           
       1.347915              0.0114783519             0.00062095938           
       1.350555              0.0106030521            0.000607266324           
       1.353195              0.0117472652            0.000642332583           
       1.355836              0.0114317568             0.00062376743           
       1.358476              0.0111300817            0.000597726501           
       1.361117              0.0107551938            0.000588380361           
       1.363757              0.0111744584             0.00061805176           
       1.366397              0.0112191316            0.000600545606           
       1.369038              0.0106855862            0.000591927516           
       1.371678              0.0114552203            0.000607470699           
       1.374319              0.0113243726            0.000598790424           
       1.376959              0.0111393075            0.000587905141           
       1.379599              0.0105699125            0.000613742139           
       1.382240              0.0111374524            0.000592109011           
       1.384880              0.0106962697            0.000614630412           
       1.387520              0.0110603483            0.000593584871           
       1.390161              0.0106673683            0.000553657054           
       1.392801              0.0109410929            0.000584211181           
       1.395442              0.0112921178            0.000601614836           
       1.398082              0.0110932038            0.000558401926           
       1.400722              0.0105069494            0.000569247648           
       1.403363               0.012842869            0.000662469954           
       1.406003              0.0109807018            0.000573275963           
       1.408644              0.0117113969            0.000620203229           
       1.411284              0.0107841905            0.000563550367           
       1.413924              0.0114232522            0.000577857572           
       1.416565              0.0117937257            0.000584846801           
       1.419205              0.0108832837             0.00058606708           
       1.421845               0.011590413            0.000604451868           
       1.424486              0.0118397146            0.000587232577           
       1.427126               0.011238857             0.00059434047           
       1.429767              0.0113061155            0.000560872899           
       1.432407              0.0100171457            0.000552495404           
       1.435047              0.0100912282            0.000520800078           
       1.437688              0.0112849107            0.000558976422           
       1.440328              0.0108353965            0.000559020333           
       1.442968              0.0112338272            0.000581958849           
       1.445609               0.011319442            0.000565640733           
       1.448249              0.0111425925            0.000575414014           
       1.450890              0.0119074709            0.000590953298           
       1.453530               0.011996805            0.000620570863           
       1.456170              0.0104563485            0.000562282599           
       1.458811              0.0117274607            0.000569409893           
       1.461451              0.0114881783            0.000565049336           
       1.464092              0.0105282902            0.000544464799           
       1.466732              0.0109659482            0.000550891217           
       1.469372              0.0110279151            0.000539516606           
       1.472013              0.0109527909            0.000579894118           
       1.474653              0.0106110299            0.000561970241           
       1.477293              0.0104256689            0.000568780719           
       1.479934              0.0111300878            0.000560771149           
       1.482574              0.0124847175            0.000574521864           
       1.485215               0.010387788            0.000533817945           
       1.487855              0.0118259219            0.000577086262           
       1.490495              0.0122926441            0.000586196829           
       1.493136              0.0123923525            0.000580501963           
       1.495776              0.0114958033            0.000556563181           
       1.498416              0.0104852911            0.000548929347           
       1.501057              0.0109007278            0.000547363333           
       1.503697              0.0116715597             0.00055373252           
       1.506338              0.0110806627            0.000549392708           
       1.508978              0.0104113095            0.000527303411           
       1.511618              0.0103537847            0.000560021997           
       1.514259              0.0112646686            0.000563956929           
       1.516899             0.00972540984            0.000510213336           
       1.519540              0.0103361867            0.000534472641           
       1.522180              0.0107419995             0.00054965004           
       1.524820              0.0103029022            0.000535278787           
       1.527461              0.0109506321            0.000554577728           
       1.530101              0.0103986159            0.000535014217           
       1.532741              0.0104018366            0.000531991695           
       1.535382             0.00994403675            0.000528526937           
       1.538022              0.0124805429            0.000557799105           
       1.540663              0.0106660341            0.000554623041           
       1.543303              0.0115575714            0.000536067226           
       1.545943              0.0112685382            0.000560248008           
       1.548584               0.010966407            0.000562607376           
       1.551224              0.0108633294            0.000517733209           
       1.553864              0.0118910704            0.000572375891           
       1.556505               0.010651196            0.000523309732           
       1.559145             0.00998359655            0.000512850611           
       1.561786              0.0101330087             0.00051707188           
       1.564426             0.00980402266            0.000492788961           
       1.567066              0.0108048988            0.000542064392           
       1.569707              0.0104791986             0.00052424265           
       1.572347              0.0102213533            0.000534890478           
       1.574988             0.00980180983            0.000498567834           
       1.577628              0.0105291574            0.000538827255           
       1.580268              0.0105451719            0.000522463097           
       1.582909             0.00950092235            0.000525655538           
       1.585549             0.00965133765            0.000514419057           
       1.588189              0.0103253322            0.000520465206           
       1.590830             0.00983536695            0.000507328826           
       1.593470             0.00977558954            0.000525811749           
       1.596111             0.00971937523            0.000511877465           
       1.598751             0.00977468278            0.000497401313           
       1.601391             0.00933202557            0.000496730828           
       1.604032               0.010002696            0.000525021502           
       1.606672             0.00952765124             0.00049784795           
       1.609312             0.00953302089            0.000519841462           
       1.611953             0.00922861698            0.000500509644           
       1.614593             0.00932591256            0.000493541587           
       1.617234             0.00893372777            0.000500624498           
       1.619874             0.00902336666            0.000501142311           
       1.622514             0.00962868379            0.000510616724           
       1.625155             0.00950858269            0.000510419798           
       1.627795             0.00955126037            0.000499029747           
       1.630436             0.00822619581            0.000460703945           
       1.633076             0.00961612463            0.000504639648           
       1.635716              0.0090925898            0.000483075213           
       1.638357             0.00952145905            0.000495639526           
       1.640997             0.00936676363            0.000506488165           
       1.643637              0.0088358277             0.00047869764           
       1.646278             0.00916750631            0.000502919953           
       1.648918             0.00826611944            0.000478858511           
       1.651559             0.00912775211            0.000507102842           
       1.654199             0.00952501677            0.000503820501           
       1.656839             0.00888106692            0.000486661627           
       1.659480             0.00916086495            0.000512829016           
       1.662120             0.00894217651            0.000477200527           
       1.664761             0.00857792074             0.00048548739           
       1.667401             0.00926411753            0.000482224842           
       1.670041             0.00894999616            0.000481205972           
       1.672682             0.00874831998            0.000473797986           
       1.675322             0.00940441936            0.000488084632           
       1.677962             0.00872599255            0.000464963769           
       1.680603             0.00878293155            0.000467913767           
       1.683243             0.00822312977            0.000472366918           
       1.685884             0.00814157552            0.000473489612           
       1.688524             0.00829051964            0.000468565094           
       1.691164             0.00884785166            0.000484168505           
       1.693805             0.00902209949             0.00049428372           
       1.696445             0.00895786197            0.000495377896           
       1.699085             0.00837441001             0.00046292407           
       1.701726             0.00869446213            0.000454388194           
       1.704366             0.00886198058            0.000483274983           
       1.707007             0.00884333475            0.000472004922           
       1.709647              0.0080844825            0.000456395806           
       1.712287             0.00983190908            0.000507689648           
       1.714928             0.00924728609            0.000496334001           
       1.717568             0.00967140723            0.000478150317           
       1.720209             0.00814465756            0.000459601355           
       1.722849             0.00795724657            0.000451947286           
       1.725489             0.00889555344            0.000478252645           
       1.728130             0.00791810599            0.000479512918           
       1.730770             0.00860840226            0.000474844769           
       1.733410             0.00936790494            0.000487562963           
       1.736051              0.0082534306            0.000460828295           
       1.738691             0.00802176003             0.00044510508           
       1.741332             0.00820987858            0.000463460811           
       1.743972             0.00839965875            0.000484102089           
       1.746612             0.00853964867            0.000468719136           
       1.749253             0.00858495906            0.000479241947           
       1.751893             0.00740600455            0.000441853338           
       1.754533             0.00786463551            0.000454903924           
       1.757174               0.007171015            0.000430313124           
       1.759814             0.00916482242            0.000479096323           
       1.762455             0.00794413653            0.000454241066           
       1.765095             0.00852840556            0.000450232811           
       1.767735             0.00757820544            0.000437503845           
       1.770376             0.00894595417            0.000476601532           
       1.773016             0.00899241266            0.000474636798           
       1.775657             0.00797901942            0.000440660127           
       1.778297             0.00858497095            0.000453150603           
       1.780937             0.00831345809             0.00047067604           
       1.783578             0.00837355234            0.000460562775           
       1.786218             0.00852171357            0.000484881277           
       1.788858             0.00912990552            0.000476670609           
       1.791499             0.00793643367            0.000439433137           
       1.794139             0.00876264368            0.000457994013           
       1.796780             0.00928685985            0.000469221512           
       1.799420              0.0086641565            0.000450707633           
       1.802060             0.00912571507            0.000466293172           
       1.804701             0.00821080445            0.000424452691           
       1.807341             0.00904367291            0.000468081727           
       1.809981             0.00880083919             0.00046329419           
       1.812622             0.00813617145            0.000437436392           
       1.815262             0.00855820484            0.000458168261           
       1.817903             0.00828183657            0.000444031679           
       1.820543             0.00839224584            0.000453946665           
       1.823183             0.00858667975            0.000458922706           
       1.825824             0.00800695818            0.000423377248           
       1.828464             0.00904589698            0.000469152061           
       1.831105              0.0091528408            0.000458869652           
       1.833745             0.00811136637             0.00044120045           
       1.836385             0.00842621697            0.000462514962           
       1.839026             0.00847069295            0.000462268855           
       1.841666             0.00822865047            0.000454000945           
       1.844306             0.00805556488            0.000436944065           
       1.846947             0.00864929986            0.000456729058           
       1.849587             0.00802367841            0.000485757316           
       1.852228             0.00778448741            0.000432648367           
       1.854868             0.00774663412            0.000455916471           
       1.857508             0.00848940939            0.000472592644           
       1.860149             0.00867630914            0.000486446872           
       1.862789             0.00726061827            0.000429522667           
       1.865429             0.00755346046            0.000457308331           
       1.868070             0.00840483532            0.000475963263           
       1.870710             0.00801487631            0.000454074947           
       1.873351             0.00763267609            0.000448594042           
       1.875991             0.00735306568            0.000447486429           
       1.878631             0.00756487403            0.000445192782           
       1.881272             0.00812450491            0.000458274856           
       1.883912             0.00768830886            0.000463951261           
       1.886553              0.0091463094            0.000500376758           
       1.889193             0.00837392812            0.000477965006           
       1.891833             0.00796194058            0.000484020506           
       1.894474              0.0077816985            0.000474343181           
       1.897114             0.00787240853            0.000461679558           
       1.899754             0.00755911569              0.0004542926           
       1.902395             0.00803084199            0.000459098239           
       1.905035             0.00782362238             0.00047994748           
       1.907676             0.00809717537            0.000460192211           
       1.910316             0.00824405552            0.000476676536           
       1.912956             0.00796235655            0.000458155529           
       1.915597             0.00750357556            0.000447246249           
       1.918237             0.00864392675            0.000495753888           
       1.920878             0.00672665812            0.000435540725           
       1.923518             0.00838427636            0.000486458857           
       1.926158             0.00757031033            0.000456244524           
       1.928799             0.00837374577            0.000474290372           
       1.931439             0.00739938534            0.000457537315           
       1.934079             0.00777444589            0.000488910353           
       1.936720             0.00712525297            0.000433664323           
       1.939360             0.00744432805             0.00047290506           
       1.942001             0.00811528052            0.000452553288           
       1.944641             0.00699951496            0.000428571605           
       1.947281             0.00741339547            0.000436994864           
       1.949922             0.00735675378            0.000449649371           
       1.952562             0.00727427406            0.000461136967           
       1.955202             0.00774864804            0.000475355326           
       1.957843             0.00831268598            0.000479584312           
       1.960483             0.00712009007            0.000464045435           
       1.963124             0.00776626707            0.000474702505           
       1.965764             0.00734000482            0.000435199241           
       1.968404             0.00763327256            0.000439614948           
       1.971045              0.0086627608            0.000477479638           
       1.973685             0.00820583438             0.00048745289           
       1.976326             0.00700766921            0.000444270882           
       1.978966             0.00777405958            0.000472040935           
       1.981606             0.00783246138            0.000483692323           
       1.984247             0.00793437531            0.000483628328           
       1.986887             0.00693107016            0.000446603124           
       1.989527             0.00805937808            0.000476397992           
       1.992168             0.00739608964            0.000473525991           
       1.994808             0.00745397985             0.00047333782           
       1.997449             0.00827780282            0.000488565596           
       2.000089             0.00832243104            0.000487938614           
       2.002729             0.00764232002            0.000467856847           
       2.005370             0.00831208363             0.00048267759           
       2.008010               0.007814075            0.000488419594           
       2.010650             0.00755063371            0.000483698338           
       2.013291              0.0078038231            0.000471798469           
       2.015931             0.00729809228            0.000453029633           
       2.018572             0.00794180544            0.000505476239           
       2.021212             0.00762497079            0.000486391995           
       2.023852             0.00786334062            0.000467487362           
       2.026493             0.00709136139            0.000463781641           
       2.029133             0.00765137818            0.000472051827           
       2.031774             0.00783764917            0.000501401935           
       2.034414             0.00711761167            0.000439656644           
       2.037054             0.00765633576            0.000467549638           
       2.039695             0.00753801577            0.000460419041           
       2.042335             0.00798795536            0.000492549486           
       2.044975             0.00714088012            0.000460054123           
       2.047616             0.00784849127            0.000481111778           
       2.050256             0.00665919103            0.000447357047           
       2.052897             0.00756328194            0.000485548094           
       2.055537             0.00739411895            0.000463986239           
       2.058177             0.00755797522            0.000459374529           
       2.060818             0.00798268493            0.000494566637           
       2.063458             0.00685039395            0.000477438255           
       2.066098             0.00817195731            0.000491913143           
       2.068739             0.00753934213            0.000479833811           
       2.071379             0.00703643324            0.000475643717           
       2.074020             0.00722509835            0.000471503435           
       2.076660             0.00725300239            0.000476232018           
       2.079300             0.00744475647            0.000494308118           
       2.081941             0.00729105791            0.000447899064           
       2.084581             0.00726017755             0.00047175961           
       2.087222             0.00697568613            0.000445963992           
       2.089862             0.00722427449            0.000494301781           
       2.092502             0.00729929772            0.000481636569           
       2.095143             0.00752045969            0.000504840368           
       2.097783             0.00730624125            0.000481758906           
       2.100423             0.00719331309            0.000460617503           
       2.103064             0.00790310243            0.000500978531           
       2.105704             0.00698168114            0.000468536897           
       2.108345             0.00702412638            0.000451504911           
       2.110985             0.00665685181            0.000469463078           
       2.113625             0.00830328751            0.000528890109           
       2.116266             0.00773942617            0.000517860876           
       2.118906             0.00788381095            0.000487098314           
       2.121546              0.0074880244            0.000465650368           
       2.124187             0.00800014272            0.000505227209           
       2.126827             0.00766639536            0.000500096334           
       2.129468             0.00847126871            0.000527035917           
       2.132108             0.00738735897            0.000478838937           
       2.134748               0.007566522            0.000482730523           
       2.137389             0.00659545312            0.000470182709           
       2.140029             0.00761294218            0.000452241364           
       2.142670             0.00739652679            0.000476400819           
       2.145310             0.00760756493            0.000470257936           
       2.147950             0.00760817172            0.000484042869           
       2.150591             0.00719242734            0.000465875723           
       2.153231              0.0070456551            0.000474628473           
       2.155871             0.00721320814            0.000463942709           
       2.158512             0.00714619419            0.000481837359           
       2.161152             0.00729936633            0.000471713255           
       2.163793             0.00803708821            0.000492748492           
       2.166433             0.00793762723            0.000502860101           
       2.169073             0.00750711206            0.000478145587           
       2.171714             0.00768905389             0.00048028763           
       2.174354              0.0072691761            0.000487961372           
       2.176995             0.00731492144            0.000487434674           
       2.179635             0.00731371203            0.000515037038           
       2.182275             0.00696698338            0.000474610028           
       2.184916             0.00716000837             0.00046471856           
       2.187556              0.0068286123            0.000449287826           
       2.190196             0.00671191144            0.000465470566           
       2.192837             0.00706785572            0.000475054661           
       2.195477             0.00746758039            0.000465539242           
       2.198118             0.00815494552            0.000498958992           
       2.200758             0.00717296264            0.000480092889           
       2.203398             0.00709355017            0.000480482192           
       2.206039             0.00663351297            0.000439743103           
       2.208679             0.00665235645            0.000450615808           
       2.211319             0.00721576579            0.000472016117           
       2.213960             0.00654371395            0.000455520526           
       2.216600             0.00689613948            0.000483748854           
       2.219241             0.00675502053            0.000457578266           
       2.221881             0.00741266303            0.000480320585           
       2.224521             0.00723936783            0.000480489419           
       2.227162             0.00673107379            0.000454037643           
       2.229802             0.00752714095            0.000495166665           
       2.232443             0.00791298772            0.000499691472           
       2.235083              0.0071257697            0.000488171904           
       2.237723             0.00754490617            0.000482052678           
       2.240364             0.00679685027            0.000468803594           
       2.243004             0.00687732099            0.000467806292           
       2.245644             0.00708789638             0.00047966775           
       2.248285             0.00708504656            0.000469964078           
       2.250925              0.0073337572            0.000481046167           
       2.253566             0.00778732681            0.000529939754           
       2.256206             0.00738098175            0.000505612293           
       2.258846             0.00721776806            0.000475629563           
       2.261487             0.00596966834            0.000454007795           
       2.264127             0.00783635674             0.00050237196           
       2.266767             0.00753743735            0.000505824068           
       2.269408             0.00654631123            0.000473326447           
       2.272048             0.00717740764            0.000492658667           
       2.274689             0.00791205156             0.00052407315           
       2.277329             0.00709906646            0.000467410029           
       2.279969             0.00729685745            0.000504414588           
       2.282610             0.00704965493            0.000482007248           
       2.285250              0.0071821198            0.000465660674           
       2.287891             0.00722084778            0.000500602812           
       2.290531             0.00680725814            0.000492588755           
       2.293171             0.00615637789            0.000456310322           
       2.295812             0.00654537552            0.000468614484           
       2.298452             0.00597613367            0.000468252289           
       2.301092              0.0067194984            0.000461329617           
       2.303733             0.00657484854            0.000474750006           
       2.306373             0.00708495443            0.000500583839           
       2.309014             0.00693983696             0.00048576598           
       2.311654             0.00637097648            0.000485699513           
       2.314294             0.00814339055            0.000505906325           
       2.316935             0.00773381206            0.000495056585           
       2.319575             0.00675743911            0.000484857886           
       2.322215              0.0077793731            0.000542167858           
       2.324856             0.00677447206             0.00046515955           
       2.327496             0.00682989545            0.000496629805           
       2.330137             0.00641360499            0.000460526731           
       2.332777             0.00681627069            0.000489531595           
       2.335417             0.00675467605             0.00047276819           
       2.338058             0.00663297031            0.000482484473           
       2.340698             0.00745524967            0.000507497686           
       2.343339             0.00681554944             0.00049591452           
       2.345979             0.00684629694              0.0004702317           
       2.348619             0.00711961861            0.000497054669           
       2.351260             0.00653745013            0.000473524312           
       2.353900             0.00726765021            0.000497687987           
       2.356540              0.0067909303            0.000480405374           
       2.359181             0.00673994061            0.000471888704           
       2.361821             0.00672275878            0.000455250526           
       2.364462             0.00645140197            0.000466426777           
       2.367102             0.00754773271            0.000518458639           
       2.369742             0.00706541053             0.00052798935           
       2.372383             0.00611678173            0.000444841428           
       2.375023             0.00694518267            0.000498285007           
       2.377663             0.00785011703            0.000506522382           
       2.380304             0.00696483521             0.00048506242           
       2.382944             0.00641210354            0.000443295194           
       2.385585             0.00743122701            0.000508968496           
       2.388225             0.00712357325            0.000495979863           
       2.390865             0.00731214262            0.000497339759           
       2.393506             0.00643853613            0.000457881051           
       2.396146             0.00594457705            0.000475711602           
       2.398787               0.007532353            0.000493492444           
       2.401427             0.00716243177            0.000464490119           
       2.404067              0.0073765344            0.000481895816           
       2.406708             0.00686384451             0.00045927342           
       2.409348             0.00643255858            0.000471596145           
       2.411988             0.00757651216            0.000501465505           
       2.414629             0.00706264081            0.000499239815           
       2.417269             0.00620246344            0.000473313503           
       2.419910              0.0074781278            0.000520918549           
       2.422550             0.00648090009            0.000463963934           
       2.425190             0.00746880635            0.000525019937           
       2.427831             0.00711904238             0.00050969782           
       2.430471             0.00723418563            0.000489496804           
       2.433112             0.00656770399            0.000454165856           
       2.435752             0.00657378641            0.000480871785           
       2.438392             0.00778467655            0.000505081029           
       2.441033             0.00688202277            0.000503294665           
       2.443673             0.00788656502            0.000539190171           
       2.446313               0.006930906            0.000505912922           
       2.448954             0.00665339095             0.00047195762           
       2.451594             0.00742004616            0.000535904793           
       2.454235             0.00657058413             0.00047315928           
       2.456875             0.00670046347             0.00049996346           
       2.459515             0.00859980542            0.000581071837           
       2.462156             0.00682254295            0.000488646414           
       2.464796             0.00819818711            0.000528738476           
       2.467436               0.006887014            0.000501149556           
       2.470077             0.00819141866            0.000518032024           
       2.472717             0.00739428955            0.000494313511           
       2.475358             0.00758749305            0.000505950906           
       2.477998             0.00792243829            0.000508281912           
       2.480638             0.00714966707            0.000491436468           
       2.483279             0.00845495457             0.00055855076           
       2.485919             0.00815917799             0.00052879212           
       2.488560             0.00681314125            0.000481859342           
       2.491200               0.006900959            0.000499375336           
       2.493840             0.00711498708             0.00053653597           
       2.496481              0.0067280719            0.000513208974           
       2.499121             0.00684035223            0.000503325679           
       2.501761             0.00630683885            0.000489702275           
       2.504402             0.00734771593             0.00052084753           
       2.507042             0.00672880982            0.000494736965           
       2.509683             0.00687643359            0.000492490747           
       2.512323             0.00656759993            0.000505489149           
       2.514963             0.00819796328            0.000557779541           
       2.517604             0.00694561538            0.000532742614           
       2.520244              0.0075053156            0.000519180862           
       2.522884             0.00808451247             0.00054654754           
       2.525525             0.00755000636            0.000534166008           
       2.528165             0.00768899787             0.00053065773           
       2.530806             0.00755006243            0.000535007089           
       2.533446             0.00681047543            0.000497282178           
       2.536086              0.0070944444            0.000503000913           
       2.538727             0.00673538515            0.000470183051           
       2.541367             0.00708499855            0.000486981776           
       2.544008             0.00688198699            0.000495675475           
       2.546648             0.00750249655            0.000526416583           
       2.549288              0.0069194421            0.000515848728           
       2.551929             0.00733686758            0.000522713448           
       2.554569             0.00690656437            0.000488599879           
       2.557209             0.00760770068            0.000517510651           
       2.559850             0.00676410247            0.000489542103           
       2.562490             0.00771839637            0.000540482383           
       2.565131             0.00777434908            0.000562424035           
       2.567771              0.0071839085            0.000521263024           
       2.570411             0.00684587515            0.000503345739           
       2.573052             0.00744360158            0.000531469871           
       2.575692             0.00704325705            0.000513849567           
       2.578332              0.0068774059            0.000509863321           
       2.580973             0.00794973244            0.000542957386           
       2.583613             0.00645852736            0.000477738429           
       2.586254             0.00711550679            0.000500751615           
       2.588894             0.00664038562            0.000502345631           
       2.591534             0.00626458278            0.000505092752           
       2.594175             0.00607298955            0.000487924517           
       2.596815             0.00666870776            0.000514310517           
       2.599456             0.00651953795            0.000482232632           
       2.602096              0.0068015866            0.000496301867           
       2.604736              0.0074796052            0.000532792379           
       2.607377             0.00755228242            0.000521265748           
       2.610017              0.0076407408            0.000515134372           
       2.612657             0.00761707098            0.000547073732           
       2.615298             0.00625432032            0.000483984775           
       2.617938             0.00586674768            0.000501441626           
       2.620579              0.0062680091            0.000497568799           
       2.623219              0.0064205673            0.000502869753           
       2.625859             0.00673682612            0.000500827369           
       2.628500             0.00602566077            0.000470551026           
       2.631140             0.00772092676            0.000540853706           
       2.633780             0.00697321224            0.000513551297           
       2.636421             0.00705759496            0.000529354583           
       2.639061             0.00636913567            0.000473397395           
       2.641702             0.00706228599            0.000510032481           
       2.644342             0.00776002644            0.000536912321           
       2.646982             0.00714125504            0.000507361395           
       2.649623             0.00776340887            0.000554371658           
       2.652263             0.00705117427             0.00052302852           
       2.654904             0.00708216066            0.000524703824           
       2.657544             0.00689253063            0.000487555178           
       2.660184             0.00709581546            0.000523529022           
       2.662825             0.00690043208            0.000528248425           
       2.665465             0.00699261926            0.000514304649           
       2.668105             0.00739610156            0.000557517301           
       2.670746             0.00706519915            0.000503374079           
       2.673386              0.0109585701            0.000646081594           
       2.676027              0.0115962262            0.000653946334           
       2.678667             0.00722241365             0.00050357425           
       2.681307              0.0103076289            0.000591097907           
       2.683948              0.0140153051            0.000708179829           
       2.686588              0.0148512573            0.000716904545           
       2.689229              0.0106121476            0.000592170057           
       2.691869             0.00944805718            0.000590541181           
       2.694509             0.00739874302            0.000522873314           
       2.697150             0.00836003166            0.000546786381           
       2.699790             0.00710834754            0.000528575441           
       2.702430             0.00678581149            0.000493658739           
       2.705071             0.00659377854            0.000502833588           
       2.707711             0.00774464872            0.000528916405           
       2.710352             0.00652128321            0.000512830272           
       2.712992             0.00728897876            0.000552201072           
       2.715632             0.00807191599             0.00053914718           
       2.718273             0.00815215947            0.000561523927           
       2.720913             0.00691230961            0.000515591862           
       2.723553             0.00674762036            0.000512830628           
       2.726194             0.00732095205             0.00055838748           
       2.728834             0.00698956452            0.000545859231           
       2.731475             0.00794351841            0.000537059613           
       2.734115             0.00761787705            0.000542258802           
       2.736755             0.00816980726            0.000566181269           
       2.739396             0.00720715412            0.000528698336           
       2.742036             0.00726395842            0.000555492622           
       2.744677             0.00630654185            0.000502206582           
       2.747317                 0.0074288            0.000541175541           
       2.749957             0.00657511171            0.000512705001           
       2.752598             0.00771001579            0.000561217794           
       2.755238             0.00762012755            0.000568008703           
       2.757878             0.00719517508            0.000547117636           
       2.760519             0.00809110681            0.000574029862           
       2.763159             0.00756963199            0.000549675096           
       2.765800             0.00732375678            0.000515254065           
       2.768440             0.00724291311            0.000516177154           
       2.771080             0.00716812734            0.000517791662           
       2.773721             0.00778392922            0.000553493758           
       2.776361             0.00728201582            0.000542737295           
       2.779001             0.00579450122            0.000501377087           
       2.781642             0.00700599936            0.000547241609           
       2.784282             0.00750188784             0.00057558939           
       2.786923             0.00705193222            0.000562974464           
       2.789563             0.00753091384            0.000560322063           
       2.792203             0.00703563299            0.000517366954           
       2.794844             0.00735262191            0.000579658616           
       2.797484             0.00694716248            0.000531758748           
       2.800125             0.00651900148            0.000541640185           
       2.802765             0.00807697084            0.000592527142           
       2.805405             0.00719849516             0.00056127059           
       2.808046             0.00619768955            0.000529949755           
       2.810686             0.00710952983              0.0005215558           
       2.813326             0.00738547644            0.000552166138           
       2.815967             0.00685385723            0.000547046184           
       2.818607              0.0063126182            0.000500996143           
       2.821248             0.00692808509            0.000513954836           
       2.823888             0.00636139355            0.000511213648           
       2.826528             0.00680523653            0.000512065349           
       2.829169             0.00688823623             0.00053962068           
       2.831809             0.00760960176            0.000574887768           
       2.834449             0.00600659443            0.000513987119           
       2.837090             0.00677169695            0.000527099563           
       2.839730              0.0067479411            0.000523605176           
       2.842371             0.00823217468            0.000579164482           
       2.845011             0.00687129013            0.000533349396           
       2.847651             0.00727564719              0.0005494922           
       2.850292             0.00646319951             0.00052298706           
       2.852932             0.00732253476            0.000568801786           
       2.855573             0.00777954861             0.00056871121           
       2.858213             0.00760907352            0.000590636032           
       2.860853             0.00640910529            0.000504246589           
       2.863494              0.0061007406            0.000509362687           
       2.866134             0.00592219788            0.000521614924           
       2.868774             0.00740946672             0.00057340962           
       2.871415             0.00709111092            0.000569693497           
       2.874055             0.00622590148            0.000510254267           
       2.876696             0.00786401807            0.000588977585           
       2.879336             0.00601230082            0.000496349143           
       2.881976             0.00753855989            0.000573259585           
       2.884617             0.00893765062            0.000615025667           
       2.887257             0.00713538809            0.000552365093           
       2.889897             0.00798992941            0.000572476189           
       2.892538             0.00729237198            0.000599148107           
       2.895178             0.00739156841            0.000544959479           
       2.897819             0.00688241951            0.000536422937           
       2.900459             0.00646980688            0.000509977214           
       2.903099             0.00739555791            0.000539662424           
       2.905740             0.00783287663            0.000569758246           
       2.908380             0.00634944506             0.00051880557           
       2.911021              0.0073606679            0.000567674647           
       2.913661             0.00769943966            0.000580417255           
       2.916301             0.00821060713            0.000599946266           
       2.918942             0.00661782834            0.000515203266           
       2.921582             0.00690540144            0.000550638544           
       2.924222             0.00633987245            0.000511151893           
       2.926863             0.00671088868            0.000547781212           
       2.929503             0.00726117313            0.000576548098           
       2.932144             0.00648775812            0.000523146156           
       2.934784             0.00653282948            0.000516352353           
       2.937424             0.00667222324            0.000527189639           
       2.940065             0.00664198127            0.000501748136           
       2.942705             0.00638982583            0.000491514407           
       2.945346             0.00678035128            0.000537324697           
       2.947986              0.0070866667            0.000560124423           
       2.950626             0.00699384816            0.000553311203           
       2.953267             0.00639387124            0.000520497877           
       2.955907             0.00651556774            0.000545059264           
       2.958547             0.00796611401            0.000568966175           
       2.961188             0.00756942425            0.000578622298           
       2.963828             0.00724091874            0.000553581433           
       2.966469             0.00689220418            0.000529823504           
       2.969109             0.00607906722            0.000504961373           
       2.971749             0.00720497384            0.000546308711           
       2.974390              0.0076884911            0.000554569424           
       2.977030             0.00757599144            0.000562799815           
       2.979670             0.00782273885            0.000556274577           
       2.982311             0.00882960286            0.000612531749           
       2.984951             0.00847020928            0.000570592136           
       2.987592             0.00767227224            0.000553927984           
       2.990232             0.00701070662            0.000550682204           
       2.992872             0.00862572432            0.000575364124           
       2.995513             0.00812358232            0.000546265508           
       2.998153              0.0109566413            0.000645066949           
       3.000794              0.0100291188            0.000597782427           
       3.003434              0.0092309985            0.000574369451           
       3.006074              0.0116264752            0.000635566398           
       3.008715              0.0282489335            0.000956326816           
       3.011355               0.211792862             0.00252512862           
       3.013995               0.327327347             0.00314774102           
       3.016636               0.309565165             0.00299758615           
       3.019276               0.196804589             0.00234940435           
       3.021917               0.658457799              0.0041321428           
       3.024557                0.92901745             0.00482562159           
       3.027197               0.903237118             0.00463898945           
       3.029838                1.05877167             0.00509378547           
       3.032478               0.274076928             0.00259428146           
       3.035118              0.0809359805             0.00142869477           
       3.037759              0.0558931339             0.00118573373           
       3.040399              0.0686339876             0.00135536827           
       3.043040               0.181013289             0.00222809586           
       3.045680               0.203241781             0.00222131063           
       3.048320               0.193089232             0.00221222346           
       3.050961               0.256366125             0.00259397639           
       3.053601                0.15944461             0.00197025111           
       3.056242               0.232588299             0.00253005899           
       3.058882               0.500812789             0.00398248311           
       3.061522               0.427511505             0.00361003922           
       3.064163               0.320959889             0.00308858719           
       3.066803               0.123785275             0.00201933573           
       3.069443               0.123886242             0.00211360395           
       3.072084              0.0645703617             0.00148582825           
       3.074724              0.0162160301            0.000831550544           
       3.077365              0.0112905611            0.000718269999           
       3.080005              0.0128638842            0.000771027744           
       3.082645              0.0370464009             0.00137455674           
       3.085286              0.0181171384            0.000968829713           
       3.087926              0.0100699283            0.000716730185           
       3.090566             0.00797971111            0.000625139048           
       3.093207              0.0105925731            0.000749495538           
       3.095847             0.00749896257             0.00060444123           
       3.098488             0.00814420798            0.000698461435           
       3.101128             0.00811866878            0.000701850246           
       3.103768             0.00958150518             0.00074811861           
       3.106409              0.0116300906            0.000877195802           
       3.109049             0.00706377051             0.00065604914           
       3.111690             0.00788568746            0.000681267468           
       3.114330             0.00775772475            0.000690092058           
       3.116970             0.00798043562            0.000705301078           
       3.119611             0.00897994492            0.000796373571           
       3.122251              0.0125295703            0.000983996866           
       3.124891              0.0286709352             0.00150235705           
       3.127532              0.0281330924             0.00145589168           
       3.130172              0.0231076012              0.0013422642           
       3.132813              0.0114268936            0.000929234171           
       3.135453             0.00697991818            0.000720267906           
       3.138093             0.00724586284            0.000795164622           
       3.140734             0.00586359422            0.000659928017           
       3.143374             0.00822908998            0.000826777887           
       3.146014             0.00585747068            0.000750931701           
       3.148655             0.00538430318            0.000669272202           
       3.151295               0.006035062            0.000755085384           
       3.153936             0.00660113938            0.000762830792           
       3.156576             0.00650335834            0.000746860984           
       3.159216              0.0056170987            0.000697579641           
       3.161857             0.00607893296            0.000722737113           
       3.164497             0.00587072776            0.000746270515           
       3.167138             0.00647461021            0.000809766942           
       3.169778             0.00535931944            0.000724579838           
       3.172418             0.00516443955            0.000704049062           
       3.175059             0.00715221363            0.000734532544           
       3.177699             0.00581796026            0.000701531747           
       3.180339             0.00639504807            0.000788033366           
       3.182980             0.00632649884            0.000810367982           
       3.185620             0.00635571441            0.000827194194           
       3.188261             0.00657461979            0.000856332483           
       3.190901             0.00487909652            0.000678465241           
       3.193541             0.00612990982             0.00079907582           
       3.196182             0.00599599556            0.000823605241           
       3.198822             0.00655731579            0.000861582839           
       3.201463             0.00545334315            0.000772178874           
       3.204103             0.00669429891            0.000850332312           
       3.206743             0.00496655715             0.00073235742           
       3.209384             0.00666370412            0.000916523639           
       3.212024             0.00635839233            0.000834682897           
       3.214664             0.00438508803            0.000788228066           
       3.217305             0.00548587581            0.000838048977           
       3.219945             0.00541046069            0.000856619261           
       3.222586             0.00663692926            0.000903673851           
       3.225226             0.00437661063            0.000814073106           
       3.227866             0.00388547991            0.000701064874           
       3.230507              0.0056924819            0.000879633509           
       3.233147             0.00425568818            0.000766705569           
       3.235787             0.00562867198            0.000902363486           
       3.238428             0.00334495417             0.00075066472           
       3.241068             0.00631783776            0.000964650169           
       3.243709             0.00564512561            0.000942083792           
       3.246349             0.00563555061            0.000858068577           
       3.248989             0.00271407579            0.000703125433           
       3.251630             0.00336771635            0.000754229578           
       3.254270             0.00443830132            0.000773837857           
       3.256911             0.00640603409             0.00101439039           
       3.259551             0.00744391638             0.00117722983           
       3.262191             0.00562985607             0.00104574621           
       3.264832             0.00634619902             0.00116008155           
       3.267472             0.00613435638             0.00106996309           
       3.270112             0.00565057792             0.00113486209           
       3.272753             0.00381143698            0.000853131171           
       3.275393             0.00537243142              0.0010334878           
       3.278034             0.00437100727            0.000932728226           
       3.280674             0.00562783958             0.00114847229           
       3.283314             0.00431527493            0.000899422021           
       3.285955             0.00621004767             0.00111325341           
       3.288595             0.00421045064             0.00101982462           
       3.291235             0.00544436171             0.00119213157           
       3.293876             0.00427983029             0.00107216182           
       3.296516              0.0056860943             0.00118641185           
       3.299157             0.00433167761             0.00102250387           
       3.301797             0.00625490854             0.00140156433           
       3.304437             0.00564808541             0.00115388377           
       3.307078             0.00514697712             0.00121337863           
       3.309718              0.0064315155             0.00140001337           
       3.312359             0.00763688952             0.00152593815           
       3.314999             0.00413209218             0.00110513543           
       3.317639             0.00568966084             0.00124023181           
       3.320280             0.00793536917             0.00155725888           
       3.322920             0.00536094275             0.00130150726           
       3.325560             0.00504726435             0.00126371456           
       3.328201             0.00563812071             0.00120290128           
       3.330841             0.00376993986             0.00119713438           
       3.333482             0.00575579315             0.00139818803           
       3.336122             0.00473046689             0.00126813236           
       3.338762             0.00451147885             0.00143058037           
       3.341403             0.00495318323             0.00143233258           
       3.344043             0.00753345729             0.00169592789           
       3.346683             0.00513042162             0.00142882095           
       3.349324             0.00452849953             0.00150928712           
       3.351964             0.00505431789             0.00168612993           
       3.354605             0.00367659309             0.00164466237           
       3.357245             0.00349057072             0.00144563932           
       3.359885             0.00576396155              0.0014868181           
       3.362526             0.00824464906             0.00222372778           
       3.365166             0.00430101831             0.00151489319           
       3.367807            0.000833682582            0.000853567232           
       3.370447              0.0060103755             0.00190112992           
       3.373087             0.00411949419             0.00168310108           
       3.375728             0.00966482071             0.00290954033           
       3.378368             0.00193303033             0.00193115313           
       3.381008             0.00428250688             0.00214301174           
       3.383649             0.00481648512             0.00182316127           
       3.386289             0.00287273445             0.00166643454           
       3.388930             0.00480710849             0.00340977555           
       3.391570             0.00242702616             0.00171389238           
       3.394210             0.00581314663             0.00335677263           
       3.396851             0.00237773582              0.0024014408           
       3.399491             0.00718538601             0.00417577631           
       3.402131               0.014442925             0.00837599175           
       3.404772           -2.59635039e-05                         0           
       3.407412                       nan                       nan           
       3.410053              0.0182157525              0.0133225137           
       3.412693                       nan                       nan           
       3.415333              0.0176974795              0.0131441618           
