################################################################################
# EDF_DataBlockID                     0.Image.Psd
# EDF_BinarySize                      4366944
# EDF_HeaderSize                      2560
# ByteOrder                           LowByteFirst
# DataType                            FloatValue
# Dim_1                               1028
# Dim_2                               1062
# Image                               0
# HeaderID                            EH:000000:000000:000000
# Size                                4366944
# Center_1                            607.5200
# Center_2                            651.5500
# Comment                             Xenocs_Cell_Window - 20251028_20perc_iodine_1.23mg
# DDummy                              0.6
# Date                                2025-10-28T17:42:35
# Delta                               0
# Dummy                               -1.5
# ExposureTime                        360
# Gamma                               0
# Intensity1                          8.51001e-10
# PSize_1                             7.5e-05
# PSize_2                             7.5e-05
# Pressure                            0.0358725
# SampleDistance                      0.450002
# SampleEnvKind                       large
# SampleEnvPN                         ElectroChemical cell
# SampleEnvSN                         1141
# Thickness                           0
# Wavelength                          1.541891e-10
# Wavelength                          1.54189e-10
# aux                                 0
# aux_dial                            0.002375
# beamx                               588.434
# beamx_dial                          588.434
# beamz                               657.808
# beamz_dial                          657.808
# det0x                               0
# det0x_dial                          6.36945
# det0xvd                             0
# det0xvd_dial                        0
# det0y                               450.002
# det0y_dial                          481.635
# det0z                               0
# det0z_dial                          1.23302
# det0zvd                             0
# det0zvd_dial                        0
# mag                                 1.818
# mag_dial                            1.818
# om                                  0.2499
# om_dial                             -0.610199
# phi                                 -0.0120535
# phi_dial                            0
# ry                                  0.599993
# ry_dial                             0.599993
# s1bot                               0.8
# s1bot_dial                          -1.66094
# s1hl                                0.8
# s1hl_dial                           -0.608437
# s1hr                                0.8
# s1hr_dial                           0.970938
# s1top                               0.8
# s1top_dial                          -0.461562
# s2bot                               0.45
# s2bot_dial                          1.36109
# s2hl                                0.45
# s2hl_dial                           -0.83375
# s2hr                                0.45
# s2hr_dial                           -0.118594
# s2top                               0.45
# s2top_dial                          1.44734
# w2theta                             32
# w2theta_dial                        32
# waxsch                              19.2605
# waxsch_dial                         -32.7355
# waxsh                               137.085
# waxsh_dial                          -43.5338
# waxsth                              26.0607
# waxsth_dial                         -19.4086
# waxsz                               67.0407
# waxsz_dial                          -23.7954
# wind                                65.9854
# wind_dial                           66.0041
# wpsi                                124
# wpsi_dial                           124
# wstod                               115
# wstod_dial                          115
# x                                   0
# x_dial                              1.00969
# z                                   0
# z_dial                              13.3172
# CountCutoff                         15302352
# DetectorModel                       Dectris EIGER2 Si 1M, S/N E-02-0362
# ThresholdSetting                    4023.88989258
# Saturation                          0
# FlatField                           Corrected
# BackgroundReductionExtra            0.02
# BackgroundCorrectionConstant        0.0026712
# Detector                            0
# Monitor                             0
# Pil_Roi0                            0
# SumForIntensity1                    3.0636e+08
# TransmittedFlux                     851001
# det                                 0
# mon                                 0
# pilai0                              3.0636e+08
# pilai1                              805299
# pilct0                              5.30572e+08
# pilct1                              805299
# pilroi0                             0
# pilroi1                             0
# sec                                 1
# title                               20251028_20perc_iodine_1.23mg_0_00030.edf
# usaxs0                              0
# Operation                           Azimuthal average I(q)
# Error_model                         ErrorModel.poisson
# Geometrical_correction              True
# Transmission_correction             True
# Thickness_correction                False
# Binning mode                        Uniform
# Binning factor                      1.0
# Psi                                 0.0
# Omega                               0.2499
# MaskInvalidPixels                   True
# DetectorEdge                        3
# MaskFiles                           ['20251028_20perc_iodine_1.23mg_0_00012_mask.edf']
################################################################################
    q(A⁻¹)                Intensity(a.u.)            Sigma_I(a.u.)            
       0.000340                369319.457                120.275554           
       0.001019                358649.418                72.5816751           
       0.001698                349842.071                50.6889128           
       0.002377                 330890.92                  44.09247           
       0.003056                307852.968                35.9442751           
       0.003735                253567.877                28.7695473           
       0.004415                205263.206                25.8846066           
       0.005094                153401.963                19.3790386           
       0.005773                101327.672                14.5816798           
       0.006452                58983.6958                10.6595478           
       0.007131                32343.1988                7.64667605           
       0.007810                16166.0869                5.36498563           
       0.008490                8033.85153                3.35243643           
       0.009169                   3884.99                2.30400949           
       0.009848                1197.15071                1.23657167           
       0.010527                462.737243                0.76879822           
       0.011206                118.126798               0.370725848           
       0.011885                55.1098065                0.23526708           
       0.012564                25.8357678               0.165382356           
       0.013244                17.5709487               0.127507599           
       0.013923                13.0839182               0.111803921           
       0.014602                9.52511843               0.088472488           
       0.015281                7.62439415              0.0805757937           
       0.015960                6.24972645              0.0724283106           
       0.016639                5.16707195               0.062189165           
       0.017319                4.32127778              0.0559875342           
       0.017998                 3.5628446              0.0486356867           
       0.018677                3.07613635              0.0468063258           
       0.019356                2.57324585              0.0423001109           
       0.020035                2.27842297              0.0373431801           
       0.020714                1.97191634              0.0351083648           
       0.021394                1.67273728              0.0305949734           
       0.022073                 1.5092466              0.0302360931           
       0.022752                1.31899048              0.0270395791           
       0.023431                1.13529979              0.0243507124           
       0.024110                1.06331914              0.0245694206           
       0.024789                0.92868879              0.0213244776           
       0.025469               0.874025942              0.0213185435           
       0.026148                0.75963669              0.0186738244           
       0.026827               0.719443677              0.0184639054           
       0.027506               0.683070681              0.0182505524           
       0.028185               0.605542665              0.0163870915           
       0.028864               0.545461437               0.015465638           
       0.029544               0.490861287              0.0142269226           
       0.030223               0.459863042              0.0139678378           
       0.030902                0.42846109              0.0136058867           
       0.031581               0.385539049              0.0122689492           
       0.032260               0.386173105              0.0124882562           
       0.032939               0.324203265              0.0110330269           
       0.033619               0.337874208              0.0114287772           
       0.034298               0.313832262              0.0107190482           
       0.034977               0.253846278             0.00945089738           
       0.035656               0.236671947              0.0093671092           
       0.036335               0.228609562             0.00892883931           
       0.037014               0.234557701             0.00907122995           
       0.037693               0.227794664             0.00859967873           
       0.038373               0.194132095             0.00801678537           
       0.039052               0.175796627             0.00766126924           
       0.039731               0.187877504             0.00773556481           
       0.040410               0.182995139             0.00758320627           
       0.041089               0.156870747             0.00691110224           
       0.041768               0.151036334             0.00681679331           
       0.042448                0.15269613             0.00680096217           
       0.043127               0.148468618             0.00654777086           
       0.043806               0.135415445             0.00629994015           
       0.044485               0.138345097             0.00623690937           
       0.045164               0.139453321             0.00638525537           
       0.045843               0.131268717              0.0059417994           
       0.046523               0.116917486             0.00562696479           
       0.047202               0.116177709              0.0056483304           
       0.047881               0.108234179             0.00534667808           
       0.048560               0.104370312             0.00529823077           
       0.049239               0.101881062             0.00502622559           
       0.049918              0.0984791657             0.00503820117           
       0.050598               0.105715354             0.00514170544           
       0.051277              0.0950876147             0.00486093535           
       0.051956               0.101087754             0.00498048149           
       0.052635              0.0960890426              0.0047527301           
       0.053314              0.0898424094             0.00473001276           
       0.053993              0.0908826027             0.00462683626           
       0.054673               0.091212885             0.00453198366           
       0.055352              0.0896629352             0.00455931365           
       0.056031              0.0812572253             0.00424914567           
       0.056710              0.0894471082             0.00456738724           
       0.057389              0.0710767501             0.00392613837           
       0.058068              0.0847899601             0.00433239426           
       0.058748              0.0768611297             0.00417631329           
       0.059427               0.083747206             0.00428557301           
       0.060106              0.0788880461             0.00419875414           
       0.060785              0.0819743993             0.00415185867           
       0.061464              0.0669524602             0.00384264839           
       0.062143               0.077053066              0.0040804506           
       0.062822              0.0674107036             0.00377182129           
       0.063502              0.0681516681             0.00378571844           
       0.064181              0.0690963956             0.00377161474           
       0.064860              0.0635211082             0.00367133102           
       0.065539              0.0559738943             0.00341263342           
       0.066218              0.0652755672             0.00360638578           
       0.066897              0.0586917132             0.00344607701           
       0.067577              0.0541855321              0.0033429563           
       0.068256              0.0588440917             0.00356927312           
       0.068935              0.0619970683              0.0036044104           
       0.069614              0.0532317004             0.00337315088           
       0.070293              0.0520559961             0.00336645102           
       0.070972              0.0558480253             0.00346138009           
       0.071652              0.0534319198               0.003391889           
       0.072331              0.0473583354             0.00313638596           
       0.073010              0.0558835903             0.00348485703           
       0.073689              0.0492215981             0.00325257695           
       0.074368              0.0503571221             0.00328389767           
       0.075047              0.0492835951             0.00321378706           
       0.075727              0.0551108015             0.00337748606           
       0.076406              0.0503848804             0.00329386039           
       0.077085              0.0483159699             0.00316524439           
       0.077764              0.0398274441             0.00286370754           
       0.078443              0.0453077735             0.00307329605           
       0.079122              0.0493209758             0.00317571544           
       0.079802              0.0409901881             0.00292581949           
       0.080481               0.044920567             0.00295956497           
       0.081160              0.0394742844             0.00283128728           
       0.081839              0.0489539647             0.00310249867           
       0.082518              0.0435219576             0.00292777357           
       0.083197              0.0444931603             0.00291426418           
       0.083876               0.046501964              0.0029298193           
       0.084556              0.0436584958             0.00291778229           
       0.085235              0.0440971078              0.0028757471           
       0.085914               0.040580641             0.00278550261           
       0.086593              0.0383182125             0.00268932047           
       0.087272              0.0333921674             0.00247502491           
       0.087951              0.0393752511             0.00274833737           
       0.088631              0.0420571725             0.00274364761           
       0.089310              0.0399401482             0.00273041043           
       0.089989              0.0375440285             0.00261629281           
       0.090668              0.0401160663             0.00273427788           
       0.091347              0.0330046097             0.00249399481           
       0.092026              0.0359819744             0.00248905875           
       0.092706              0.0345606692             0.00252794733           
       0.093385              0.0370576271             0.00257747735           
       0.094064              0.0341807686             0.00250421922           
       0.094743              0.0363190818             0.00254202405           
       0.095422              0.0381170982             0.00257514732           
       0.096101              0.0330127827             0.00244588926           
       0.096781              0.0341597882             0.00245239247           
       0.097460              0.0383133982             0.00252636553           
       0.098139              0.0332000541             0.00233364951           
       0.098818              0.0312665354             0.00223678704           
       0.099497              0.0355955226             0.00239151552           
       0.100176              0.0297989813             0.00213071704           
       0.100856              0.0326017452             0.00222724047           
       0.101535              0.0317105571             0.00219235165           
       0.102214              0.0296283841             0.00211916587           
       0.102893               0.033906558             0.00224117698           
       0.103572              0.0340125563             0.00221151708           
       0.104251              0.0302730392             0.00209411293           
       0.104931              0.0310122939             0.00210023111           
       0.105610              0.0321062469             0.00214606826           
       0.106289              0.0310752788             0.00207619483           
       0.106968              0.0272817252             0.00195111777           
       0.107647              0.0315485824             0.00209941392           
       0.108326              0.0295375116             0.00200422259           
       0.109005              0.0332288819             0.00211239812           
       0.109685              0.0300359607             0.00198581905           
       0.110364              0.0277026963             0.00192878944           
       0.111043              0.0303408205             0.00201053708           
       0.111722               0.027318871             0.00188446822           
       0.112401              0.0297988771             0.00197361947           
       0.113080              0.0274622865             0.00187295044           
       0.113760              0.0294465014             0.00197182683           
       0.114439              0.0285515498             0.00191392084           
       0.115118              0.0273522456             0.00185916753           
       0.115797              0.0267984261             0.00185729761           
       0.116476              0.0262565931             0.00181090965           
       0.117155              0.0291063337              0.0019220295           
       0.117835              0.0271934111             0.00182086397           
       0.118514              0.0275169683             0.00185488914           
       0.119193              0.0255699692             0.00178807569           
       0.119872                0.02472671             0.00173635403           
       0.120551              0.0280228397             0.00183615201           
       0.121230              0.0280365482             0.00181811877           
       0.121910              0.0284646373             0.00184965185           
       0.122589              0.0248093316             0.00172858996           
       0.123268              0.0235056803             0.00164996435           
       0.123947              0.0278649761             0.00180807809           
       0.124626              0.0275928593             0.00177722912           
       0.125305              0.0276120737             0.00178657224           
       0.125985              0.0248232249             0.00168080422           
       0.126664              0.0265124884             0.00172050771           
       0.127343              0.0248567317             0.00168522725           
       0.128022              0.0272356487             0.00175049731           
       0.128701              0.0241588918             0.00164007176           
       0.129380              0.0229812462             0.00157956481           
       0.130059              0.0239758513              0.0016171306           
       0.130739              0.0263963479             0.00170872978           
       0.131418              0.0243758656             0.00163743425           
       0.132097              0.0228125676             0.00156374223           
       0.132776              0.0234334085             0.00157772269           
       0.133455               0.025979418             0.00167412819           
       0.134134              0.0215008447              0.0015181564           
       0.134814              0.0228500055             0.00154893733           
       0.135493              0.0219004727             0.00152254963           
       0.136172              0.0211101578             0.00148354078           
       0.136851              0.0225588409             0.00154251941           
       0.137530              0.0251603543             0.00159033259           
       0.138209              0.0248773515             0.00159992932           
       0.138889              0.0200994458             0.00144444476           
       0.139568              0.0236166952             0.00156505903           
       0.140247              0.0238443478             0.00157052325           
       0.140926               0.021723856             0.00145620117           
       0.141605              0.0210149438              0.0014686313           
       0.142284              0.0225915629             0.00149749351           
       0.142964              0.0192801807              0.0013886899           
       0.143643              0.0204202819             0.00142735375           
       0.144322              0.0208868779             0.00141336178           
       0.145001              0.0194797637             0.00139294048           
       0.145680              0.0211977628             0.00141868997           
       0.146359              0.0212524346              0.0014257145           
       0.147039              0.0205666888             0.00141407116           
       0.147718              0.0196963947             0.00136099417           
       0.148397              0.0214757288             0.00144322355           
       0.149076              0.0193393883             0.00132707381           
       0.149755              0.0213410001             0.00141558394           
       0.150434              0.0192987093             0.00134669608           
       0.151114              0.0221556525             0.00143495719           
       0.151793              0.0194494521              0.0013444801           
       0.152472              0.0227246374             0.00142760869           
       0.153151              0.0202324328             0.00136007634           
       0.153830              0.0202967092             0.00135231006           
       0.154509              0.0201101912             0.00134046588           
       0.155188              0.0199285038             0.00133390365           
       0.155868              0.0220995229              0.0013946879           
       0.156547              0.0184878064             0.00128383455           
       0.157226              0.0197832142             0.00129561411           
       0.157905              0.0231006258             0.00141179542           
       0.158584              0.0202110728             0.00131815009           
       0.159263              0.0204612643             0.00133116366           
       0.159943              0.0194441091             0.00129862281           
       0.160622              0.0212702969             0.00133202565           
       0.161301              0.0178180615             0.00123545331           
       0.161980              0.0177300473             0.00121144662           
       0.162659              0.0193084341             0.00127823301           
       0.163338              0.0206439202             0.00131092645           
       0.164018              0.0210391722             0.00131647051           
       0.164697              0.0195651819             0.00128581873           
       0.165376              0.0167214753             0.00116273597           
       0.166055              0.0195086827             0.00126419062           
       0.166734              0.0201328083             0.00127850067           
       0.167413              0.0196705843             0.00126462387           
       0.168093              0.0173113099             0.00119758551           
       0.168772              0.0171751897             0.00115798255           
       0.169451              0.0193553729             0.00125190014           
       0.170130              0.0193769135             0.00123615222           
       0.170809              0.0194370609             0.00125284438           
       0.171488              0.0174908104             0.00117763193           
       0.172168              0.0170853452             0.00115272088           
       0.172847              0.0186404375             0.00121985459           
       0.173526              0.0217135835             0.00129145977           
       0.174205              0.0197824648             0.00123837134           
       0.174884              0.0165452395             0.00112662166           
       0.175563              0.0184847259             0.00119590974           
       0.176243              0.0168813563             0.00115430412           
       0.176922              0.0177900911             0.00115408525           
       0.177601              0.0175015905             0.00115726902           
       0.178280              0.0161472313             0.00109918161           
       0.178959              0.0176935183             0.00115986306           
       0.179638              0.0194006892             0.00121103239           
       0.180317              0.0179278935             0.00115567684           
       0.180997              0.0196297761             0.00121585094           
       0.181676              0.0167207247             0.00111016616           
       0.182355              0.0161811979             0.00109866757           
       0.183034              0.0194679265             0.00118575291           
       0.183713              0.0178885679             0.00115048041           
       0.184392              0.0176584238             0.00114270997           
       0.185072              0.0164936424              0.0010917933           
       0.185751              0.0169759132             0.00111072161           
       0.186430              0.0173693495             0.00111564982           
       0.187109              0.0201691363             0.00121559716           
       0.187788               0.019419945             0.00118986585           
       0.188467              0.0187366592             0.00115491478           
       0.189147              0.0197307843              0.0011971594           
       0.189826              0.0174733626             0.00110667319           
       0.190505              0.0174200374             0.00112317276           
       0.191184              0.0156617314              0.0010496323           
       0.191863              0.0174754963             0.00111108176           
       0.192542              0.0147920315             0.00103186167           
       0.193222              0.0175585978             0.00109902902           
       0.193901              0.0175293586             0.00111283222           
       0.194580              0.0166631887             0.00106601082           
       0.195259              0.0158593297             0.00105192395           
       0.195938               0.015161357             0.00103097112           
       0.196617              0.0161106322             0.00104792185           
       0.197297              0.0160538409             0.00105034447           
       0.197976              0.0198568712             0.00115020428           
       0.198655              0.0166174045             0.00106370002           
       0.199334              0.0170726396             0.00106866358           
       0.200013              0.0141738923            0.000973182666           
       0.200692              0.0170563089             0.00107398144           
       0.201371              0.0171892928             0.00106601767           
       0.202051              0.0186221632             0.00111300961           
       0.202730              0.0173417113             0.00106333555           
       0.203409              0.0162638532             0.00103667275           
       0.204088              0.0161542449              0.0010320308           
       0.204767              0.0156650015             0.00101094129           
       0.205446               0.016646285             0.00104416036           
       0.206126              0.0156691618            0.000999287805           
       0.206805                0.01592554             0.00102589848           
       0.207484              0.0149033354            0.000974586634           
       0.208163              0.0141878168             0.00095661768           
       0.208842              0.0155341759            0.000998265974           
       0.209521              0.0153093362            0.000982779284           
       0.210201              0.0156723766             0.00100545998           
       0.210880              0.0147313453            0.000955678157           
       0.211559              0.0152512994            0.000986774557           
       0.212238              0.0158019989            0.000999320922           
       0.212917              0.0136084578            0.000923925233           
       0.213596              0.0158728501             0.00100373761           
       0.214276              0.0158772832            0.000982963453           
       0.214955              0.0171242023              0.0010422998           
       0.215634              0.0144908871            0.000951943554           
       0.216313              0.0159894889            0.000997856498           
       0.216992              0.0146273755            0.000954168835           
       0.217671              0.0174287752             0.00103448388           
       0.218351              0.0156457742            0.000989727534           
       0.219030              0.0154335504            0.000967475879           
       0.219709              0.0148360987            0.000954481883           
       0.220388               0.016379107             0.00100160079           
       0.221067              0.0142807442            0.000935985549           
       0.221746              0.0156103568            0.000977586169           
       0.222426              0.0150112819            0.000944317528           
       0.223105              0.0159645934            0.000987108202           
       0.223784               0.015829275            0.000973166139           
       0.224463              0.0166863154             0.00100712082           
       0.225142              0.0130966349            0.000878121571           
       0.225821              0.0167642154            0.000997498479           
       0.226500              0.0159023484            0.000977696172           
       0.227180              0.0141228849            0.000907177061           
       0.227859              0.0159170893             0.00096740011           
       0.228538              0.0148291883            0.000924378841           
       0.229217              0.0152451084            0.000944671236           
       0.229896              0.0176268396               0.001015298           
       0.230575              0.0161582553            0.000956587752           
       0.231255              0.0155422547            0.000952222735           
       0.231934              0.0147447788            0.000921135246           
       0.232613              0.0147957349            0.000926129852           
       0.233292              0.0151300627            0.000927486263           
       0.233971              0.0137032343            0.000882258685           
       0.234650              0.0141803846            0.000908044103           
       0.235330              0.0130531837            0.000863598954           
       0.236009               0.014934071             0.00092173451           
       0.236688              0.0161635983            0.000955495755           
       0.237367               0.014861385            0.000917528788           
       0.238046              0.0147833942            0.000921562783           
       0.238725              0.0149177423            0.000911458622           
       0.239405              0.0151684343            0.000924784447           
       0.240084              0.0142576291             0.00089088067           
       0.240763              0.0129586158            0.000857460062           
       0.241442              0.0143989804            0.000891122757           
       0.242121              0.0145150217            0.000896395176           
       0.242800              0.0147064693            0.000906558977           
       0.243480              0.0152231294            0.000918027213           
       0.244159              0.0148646626            0.000907593139           
       0.244838              0.0154870351            0.000911154884           
       0.245517              0.0133413824            0.000857849539           
       0.246196              0.0136458122            0.000868000071           
       0.246875              0.0138395034            0.000861953329           
       0.247554              0.0137413059            0.000867619001           
       0.248234              0.0148143027            0.000887196787           
       0.248913              0.0134725317             0.00085555586           
       0.249592              0.0143704129            0.000875209083           
       0.250271              0.0143023891             0.00087059985           
       0.250950              0.0134599262            0.000849742822           
       0.251629              0.0121687243            0.000801090672           
       0.252309               0.013708366            0.000851986142           
       0.252988              0.0128244607            0.000809865961           
       0.253667              0.0136451952            0.000845139272           
       0.254346               0.014535309            0.000872089706           
       0.255025              0.0139061062            0.000851136884           
       0.255704              0.0137099236              0.0008412411           
       0.256384              0.0127585002            0.000808719128           
       0.257063              0.0140352618            0.000853055405           
       0.257742              0.0147963902            0.000869811702           
       0.258421              0.0120567932            0.000783657872           
       0.259100              0.0116246628            0.000770827963           
       0.259779              0.0127531989            0.000806693464           
       0.260459              0.0138657837            0.000842797438           
       0.261138              0.0123364111             0.00077942486           
       0.261817               0.013158249            0.000821217472           
       0.262496              0.0132798623            0.000816912823           
       0.263175              0.0133981673            0.000822305954           
       0.263854              0.0128221034            0.000800696582           
       0.264534               0.012503044            0.000783918783           
       0.265213              0.0123435055            0.000791175911           
       0.265892              0.0125687508            0.000788133572           
       0.266571              0.0135030818            0.000815044784           
       0.267250              0.0126607452            0.000790543264           
       0.267929               0.012080291             0.00077141692           
       0.268609              0.0126309884            0.000793122985           
       0.269288               0.012867661            0.000787220655           
       0.269967              0.0127698608            0.000792672766           
       0.270646              0.0133083388              0.0008057148           
       0.271325              0.0120051177            0.000766526848           
       0.272004              0.0125399276            0.000775605268           
       0.272683              0.0110784185            0.000729908472           
       0.273363              0.0109855612            0.000731478775           
       0.274042              0.0114719623            0.000743086812           
       0.274721              0.0114402214            0.000741618155           
       0.275400              0.0117628036            0.000747022225           
       0.276079               0.010538665            0.000711098804           
       0.276758              0.0113666885            0.000747825822           
       0.277438               0.012254463            0.000767764488           
       0.278117              0.0121797201            0.000779337647           
       0.278796              0.0123104007             0.00077555453           
       0.279475              0.0112186995            0.000752598242           
       0.280154              0.0116813666            0.000756913742           
       0.280833              0.0109230477            0.000736384352           
       0.281513              0.0124295146            0.000797848304           
       0.282192              0.0122031595            0.000777063029           
       0.282871              0.0111165969            0.000746844584           
       0.283550              0.0113145395            0.000757502205           
       0.284229              0.0110382871            0.000759186653           
       0.284908              0.0110289857             0.00076687103           
       0.285588              0.0116288776            0.000778229719           
       0.286267              0.0113773055            0.000782091116           
       0.286946              0.0102792341            0.000738557909           
       0.287625              0.0108541453            0.000771852559           
       0.288304              0.0118416532            0.000795409188           
       0.288983              0.0102327125            0.000748764141           
       0.289663             0.00942148343            0.000722676189           
       0.290342             0.00899011942            0.000702180627           
       0.291021             0.00937686981             0.00072098882           
       0.291700              0.0100676676            0.000737315216           
       0.292379             0.00981533018            0.000744685197           
       0.293058             0.00987573285            0.000744151489           
       0.293738               0.010849187            0.000773415614           
       0.294417             0.00959287218            0.000735711341           
       0.295096              0.0106003766            0.000764879462           
       0.295775              0.0103657587            0.000767918778           
       0.296454              0.0106440045            0.000768092054           
       0.297133              0.0113503955            0.000796922419           
       0.297812              0.0107438281            0.000779224918           
       0.298492              0.0104064616            0.000768374843           
       0.299171             0.00989919117            0.000747995574           
       0.299850              0.0104268616            0.000762430364           
       0.300529             0.00925253965            0.000726304287           
       0.301208              0.0100993636            0.000760660126           
       0.301887             0.00977706007            0.000747534773           
       0.302567             0.00991540444            0.000749034651           
       0.303246             0.00987129075            0.000752245977           
       0.303925             0.00843783258            0.000704415812           
       0.304604              0.0107035941            0.000776243666           
       0.305283             0.00835227693            0.000695872221           
       0.305962             0.00939816104             0.00073369727           
       0.306642             0.00949991696            0.000747677003           
       0.307321             0.00920635894            0.000733684026           
       0.308000             0.00977791784            0.000747153357           
       0.308679             0.00973932324             0.00076182544           
       0.309358              0.0101726011            0.000768054865           
       0.310037             0.00910100711            0.000728094116           
       0.310717             0.00849658048            0.000702824416           
       0.311396             0.00921812557            0.000736968623           
       0.312075             0.00811896349            0.000700407378           
       0.312754             0.00884349317            0.000716367642           
       0.313433             0.00768885816             0.00067377629           
       0.314112             0.00815387175             0.00069369256           
       0.314792             0.00894941485            0.000731877688           
       0.315471             0.00795959246            0.000681682851           
       0.316150              0.0104345627            0.000787725573           
       0.316829             0.00797899132            0.000693378353           
       0.317508             0.00821526982            0.000695674908           
       0.318187             0.00753734826            0.000675143839           
       0.318866             0.00926342877            0.000738384751           
       0.319546             0.00816478942            0.000703608329           
       0.320225             0.00793019122            0.000693439853           
       0.320904             0.00899971313            0.000727300275           
       0.321583             0.00702639266            0.000656797159           
       0.322262             0.00819676531            0.000698640526           
       0.322941             0.00754856095            0.000679036776           
       0.323621             0.00775047281            0.000683859359           
       0.324300              0.0081927449            0.000703651583           
       0.324979             0.00774263418            0.000685285854           
       0.325658             0.00764395714            0.000682140268           
       0.326337             0.00681794413            0.000645071398           
       0.327016             0.00839775367            0.000711371836           
       0.327696             0.00725426735            0.000668521437           
       0.328375             0.00730613544            0.000665245785           
       0.329054             0.00806988537            0.000702944567           
       0.329733             0.00750264284            0.000680264286           
       0.330412             0.00781116979            0.000688423207           
       0.331091             0.00696715644            0.000661961168           
       0.331771             0.00795717676            0.000688894223           
       0.332450              0.0072169498            0.000668807279           
       0.333129             0.00663168076            0.000639460701           
       0.333808             0.00759606083            0.000685282908           
       0.334487             0.00715716161            0.000668344467           
       0.335166             0.00639778595            0.000622646859           
       0.335846             0.00582935482            0.000604787565           
       0.336525             0.00680159612            0.000646828143           
       0.337204             0.00685743048             0.00065118032           
       0.337883             0.00581619172            0.000600503043           
       0.338562             0.00701376707            0.000663093704           
       0.339241             0.00641312083             0.00063525338           
       0.339921             0.00758220782            0.000679149333           
       0.340600             0.00719394777            0.000674095147           
       0.341279              0.0048108081            0.000545344498           
       0.341958             0.00583538099            0.000609089137           
       0.342637             0.00709297423            0.000662035592           
       0.343316             0.00633155847            0.000627303956           
       0.343995             0.00635166823            0.000638587233           
       0.344675             0.00642073063            0.000630250151           
       0.345354             0.00562528156            0.000593810901           
       0.346033             0.00698439096            0.000659943441           
       0.346712             0.00536004961            0.000581820738           
       0.347391             0.00656984001            0.000648131246           
       0.348070             0.00577121451            0.000598835223           
       0.348750             0.00682864347            0.000660802039           
       0.349429             0.00707961428            0.000664149406           
       0.350108             0.00548194691            0.000591457133           
       0.350787             0.00768641707            0.000688456137           
       0.351466              0.0056929351            0.000603406313           
       0.352145             0.00512550403            0.000573020637           
       0.352825             0.00577058995            0.000605257892           
       0.353504             0.00556915455            0.000594454295           
       0.354183             0.00568150884            0.000593503218           
       0.354862             0.00511739285            0.000576357556           
       0.355541             0.00655928674            0.000643977392           
       0.356220             0.00506496063            0.000566956729           
       0.356900             0.00660103022            0.000653391354           
       0.357579             0.00612175616            0.000621508887           
       0.358258             0.00596278882            0.000621874614           
       0.358937              0.0066656083            0.000645142098           
       0.359616             0.00615852571            0.000628776832           
       0.360295             0.00532402788            0.000585113285           
       0.360975             0.00649718223            0.000643607307           
       0.361654             0.00527888468            0.000583126504           
       0.362333             0.00553264503            0.000593942193           
       0.363012             0.00600469198            0.000626722475           
       0.363691             0.00603666948            0.000615991494           
       0.364370             0.00496023301            0.000565303367           
       0.365050             0.00573024938            0.000604348057           
       0.365729             0.00552177211            0.000598909218           
       0.366408             0.00470208027            0.000553894852           
       0.367087             0.00504790618            0.000564697585           
       0.367766             0.00487808773            0.000566684091           
       0.368445              0.0045073963            0.000535055836           
       0.369124             0.00489232871            0.000561813806           
       0.369804             0.00507500727            0.000571291094           
       0.370483             0.00480683143            0.000558424717           
       0.371162             0.00512851966            0.000580152055           
       0.371841             0.00499723045            0.000562693066           
       0.372520             0.00501626699            0.000575064245           
       0.373199              0.0044438195            0.000534791296           
       0.373879             0.00427953565            0.000530889043           
       0.374558             0.00511076868            0.000571695118           
       0.375237             0.00544734676            0.000591187478           
       0.375916             0.00481218038            0.000566297846           
       0.376595             0.00486480044            0.000558257219           
       0.377274              0.0044383521            0.000541763064           
       0.377954             0.00492433756            0.000561689015           
       0.378633             0.00466776884            0.000553771494           
       0.379312             0.00500411816            0.000573231505           
       0.379991             0.00318643233            0.000455056122           
       0.380670             0.00398757547            0.000518055231           
       0.381349             0.00391848474            0.000506173891           
       0.382029             0.00458115743            0.000555145461           
       0.382708             0.00463482574            0.000546194044           
       0.383387              0.0043915241            0.000543713519           
       0.384066              0.0037680845            0.000499021879           
       0.384745             0.00373570538            0.000498826455           
       0.385424             0.00535813879            0.000599435827           
       0.386104             0.00499722241            0.000572497968           
       0.386783              0.0036447481            0.000499501682           
       0.387462             0.00527818139            0.000586144639           
       0.388141             0.00497700134            0.000578266623           
       0.388820             0.00377966861            0.000500288278           
       0.389499             0.00375573223            0.000501509065           
       0.390178             0.00305634812            0.000454212316           
       0.390858              0.0035203275            0.000483526811           
       0.391537             0.00401300975            0.000521526469           
       0.392216             0.00443344965            0.000541295239           
       0.392895             0.00386344574            0.000507003965           
       0.393574             0.00431061957            0.000534214838           
       0.394253              0.0040882019            0.000522590678           
       0.394933             0.00377023258            0.000507591341           
       0.395612             0.00399184449            0.000507124922           
       0.396291             0.00296134023            0.000445682073           
       0.396970             0.00422114973            0.000527389441           
       0.397649             0.00399304784             0.00051452133           
       0.398328             0.00354773436             0.00048285142           
       0.399008             0.00398181404            0.000510426932           
       0.399687             0.00428782805            0.000531737704           
       0.400366             0.00413095783            0.000519924022           
       0.401045             0.00385057556            0.000501020419           
       0.401724             0.00419359227            0.000523733097           
       0.402403             0.00346065881            0.000479477365           
       0.403083             0.00322903798             0.00045647536           
       0.403762             0.00469397519            0.000553079384           
       0.404441             0.00396940657            0.000511843427           
       0.405120             0.00354606027            0.000482192991           
       0.405799             0.00410035683            0.000516259246           
       0.406478             0.00396830766            0.000507891088           
       0.407158             0.00433233556            0.000529679461           
       0.407837             0.00401661991            0.000514516003           
       0.408516             0.00373136768            0.000491595501           
       0.409195             0.00368612975            0.000494149165           
       0.409874             0.00368158433            0.000500715369           
       0.410553             0.00321070652            0.000472628356           
       0.411233             0.00262352148            0.000425016318           
       0.411912             0.00398298702            0.000531102232           
       0.412591             0.00404788203            0.000538954894           
       0.413270             0.00237541455            0.000410903691           
       0.413949             0.00386317737            0.000529737024           
       0.414628             0.00293386088            0.000460815745           
       0.415307             0.00263537155            0.000441603688           
       0.415987             0.00273281054             0.00044598769           
       0.416666             0.00405184038            0.000539788244           
       0.417345             0.00228094763            0.000411763094           
       0.418024             0.00265237068            0.000444035747           
       0.418703              0.0030807264            0.000477670926           
       0.419382             0.00341160906            0.000500205466           
       0.420062             0.00276832481             0.00045184806           
       0.420741             0.00250195695            0.000431844399           
       0.421420             0.00253054424            0.000435951612           
       0.422099             0.00125810978            0.000307398595           
       0.422778             0.00233433249            0.000420987751           
       0.423457             0.00320230392            0.000496100291           
       0.424137             0.00301763537            0.000473735281           
       0.424816              0.0028394734            0.000469141817           
       0.425495             0.00368955938            0.000534270817           
       0.426174             0.00338829253            0.000512173012           
       0.426853             0.00274068762            0.000457836012           
       0.427532             0.00208482633            0.000402690627           
       0.428212              0.0028365522            0.000472813006           
       0.428891             0.00296964992            0.000482678245           
       0.429570              0.0023442931            0.000429148794           
       0.430249             0.00216899247            0.000410648511           
       0.430928             0.00219235987            0.000421882666           
       0.431607             0.00225970304            0.000420953749           
       0.432287              0.0018237726            0.000380945821           
       0.432966             0.00193804458             0.00039615315           
       0.433645             0.00236099765            0.000437705798           
       0.434324             0.00192127885            0.000392467688           
       0.435003              0.0022468312            0.000425143021           
       0.435682             0.00270995289            0.000470736733           
       0.436361             0.00277631679            0.000475828114           
       0.437041             0.00212258469            0.000415497231           
       0.437720              0.0022969781            0.000434313957           
       0.438399             0.00225180943            0.000432266479           
       0.439078             0.00276195503            0.000492616109           
       0.439757             0.00330854446            0.000535839924           
       0.440436              0.0026685842            0.000492080199           
       0.441116             0.00312661312            0.000541348134           
       0.441795             0.00248992857            0.000483677557           
       0.442474             0.00212838381            0.000448432192           
       0.443153             0.00264962479            0.000512011294           
       0.443832             0.00205666802             0.00045185685           
       0.444511              0.0025424678            0.000500132676           
       0.445191             0.00215790098            0.000471965514           
       0.445870             0.00265842055            0.000523863588           
       0.446549              0.0018964836            0.000447132885           
       0.447228             0.00144986217            0.000388744661           
       0.447907             0.00265904836            0.000532775724           
       0.448586             0.00213673732            0.000489083186           
       0.449266            0.000778601106            0.000292517226           
       0.449945             0.00251506326            0.000523592429           
       0.450624             0.00240693729            0.000520347966           
       0.451303             0.00325129765            0.000612608919           
       0.451982             0.00208030513            0.000486995974           
       0.452661             0.00180749844            0.000462399457           
       0.453341             0.00216416877             0.00050774214           
       0.454020             0.00207103024            0.000497453146           
       0.454699             0.00161236225            0.000442933763           
       0.455378             0.00125832546            0.000391504689           
       0.456057             0.00182268894            0.000479570647           
       0.456736             0.00193692553            0.000492829148           
       0.457416             0.00155184523            0.000441140021           
       0.458095             0.00134134592            0.000416066482           
       0.458774             0.00284355119            0.000613797035           
       0.459453             0.00168480156            0.000474846776           
       0.460132              0.0010777366            0.000371581104           
       0.460811             0.00228533198            0.000561281008           
       0.461490             0.00265413966            0.000598725828           
       0.462170            0.000517003504            0.000268372401           
       0.462849             0.00233162698             0.00057362536           
       0.463528            0.000922401408            0.000359956907           
       0.464207             0.00171120808            0.000499451117           
       0.464886             0.00323939129            0.000681833523           
       0.465565             0.00100252173            0.000383476106           
       0.466245             0.00100914288            0.000385934246           
       0.466924              0.0013592681            0.000458489188           
       0.467603              0.0018715582            0.000526583634           
       0.468282             0.00137078035            0.000461347202           
       0.468961             0.00141439503            0.000471707728           
       0.469640             0.00142116553            0.000474721673           
       0.470320             0.00206398789            0.000572493245           
       0.470999            0.000802759441            0.000360401464           
       0.471678            0.000336846787            0.000235702707           
       0.472357             0.00100130204            0.000407513175           
       0.473036             0.00218775485            0.000606165379           
       0.473715             0.00136314923            0.000482222757           
       0.474395            0.000549767282            0.000310475728           
       0.475074             0.00142185513            0.000499319507           
       0.475753             0.00140064851            0.000491305658           
       0.476432            0.000574739183            0.000326176365           
       0.477111             0.00111782543             0.00044938669           
       0.477790              0.0018548688            0.000581974639           
       0.478470           -0.000134073235                         0           
       0.479149            6.07933953e-05            0.000107857467           
       0.479828              0.0010105122            0.000438701609           
       0.480507            4.04102221e-05            8.84364741e-05           
       0.481186            0.000682451562             0.00037162337           
       0.481865             0.00143987959            0.000533112207           
       0.482545             0.00027708146            0.000236608801           
       0.483224             0.00108829841            0.000472126753           
       0.483903            9.41243632e-05            0.000141033799           
       0.484582            0.000768415556            0.000409520719           
       0.485261            0.000920241046            0.000436801044           
       0.485940            0.000346804435            0.000278965648           
       0.486619            0.000540701831             0.00034449545           
       0.487299            0.000339416209            0.000277293493           
       0.487978             0.00077251304            0.000414074842           
       0.488657           -8.59230442e-05                         0           
       0.489336            0.000129945528            0.000173734494           
       0.490015            -0.00032079997                         0           
       0.490694           -7.11448296e-05                         0           
       0.491374             -8.833711e-05                         0           
       0.492053            0.000196239265            0.000224426144           
       0.492732           -0.000320877689                         0           
       0.493411           -8.26490959e-05                         0           
       0.494090           -6.07821127e-05                         0           
       0.494769            -0.00032093653                         0           
       0.495449           -0.000320956205                         0           
       0.496128           -0.000320975941                         0           
       0.496807            -0.00032099546                         0           
       0.497486           -0.000321015159                         0           
       0.498165           -3.51433224e-05                         0           
       0.498844            0.000516889126            0.000384143987           
       0.499524            0.000239149991            0.000262238714           
       0.500203           -3.49125724e-05                         0           
       0.500882           -0.000321114377                         0           
       0.501561           -0.000321134131                         0           
       0.502240            0.000572986975            0.000412938382           
       0.502919           -0.000321174079                         0           
       0.503599           -0.000321194088                         0           
       0.504278           -0.000321214379                         0           
       0.504957            -0.00032123443                         0           
       0.505636           -0.000321254354                         0           
       0.506315           -0.000321274605                         0           
       0.506994           -0.000321294495                         0           
       0.507673            2.34103554e-05            9.03454536e-05           
       0.508353           -0.000321334611                         0           
       0.509032           -0.000321354792                         0           
       0.509711           -0.000321374981                         0           
       0.510390            4.05686654e-05            0.000121253141           
       0.511069            0.000758691743            0.000525964212           
       0.511748           -0.000321436282                         0           
       0.512428            5.97219287e-05            0.000151289984           
       0.513107            5.95265933e-05            0.000150807159           
       0.513786            0.000493639081            0.000446510869           
       0.514465           -0.000321517813                         0           
       0.515144           -0.000321538393                         0           
       0.515823           -0.000321558786                         0           
       0.516503            -0.00032157937                         0           
       0.517182           -0.000321599952                         0           
       0.517861            0.000105427367            0.000212540727           
       0.518540           -0.000321641133                         0           
       0.519219             0.00145333922            0.000797744082           
       0.519898           -0.000321682397                         0           
       0.520578           -0.000321703258                         0           
       0.521257            -0.00032172385                         0           
       0.521936            0.000610995068            0.000531007858           
       0.522615           -0.000321765378                         0           
       0.523294           -0.000321786343                         0           
       0.523973           -0.000321807019                         0           
       0.524653           -0.000321827546                         0           
       0.525332           -0.000321848371                         0           
       0.526011            0.000714441673            0.000609152664           
       0.526690           -0.000321890731                         0           
       0.527369           -0.000321911716                         0           
       0.528048            -0.00032193285                         0           
       0.528728           -0.000321953959                         0           
       0.529407           -0.000321974971                         0           
       0.530086            0.000204798533            0.000329054581           
       0.530765           -0.000322016807                         0           
       0.531444           -0.000322037966                         0           
       0.532123           -0.000322059499                         0           
       0.532802           -0.000322080857                         0           
       0.533482           -0.000322102141                         0           
       0.534161            -0.00032212346                         0           
       0.534840           -0.000322144595                         0           
       0.535519            0.000260324542            0.000391351815           
       0.536198            0.000274159529            0.000403603328           
       0.536877           -0.000322208438                         0           
       0.537557            0.000266483361            0.000393127142           
       0.538236           -0.000322251376                         0           
       0.538915            0.000293122188            0.000420501989           
       0.539594            0.000993469548             0.00080712645           
       0.540273           -0.000322316326                         0           
       0.540952           -0.000322337947                         0           
       0.541632           -0.000322359173                         0           
       0.542311           -0.000322380593                         0           
       0.542990           -0.000322402254                         0           
       0.543669           -0.000322424095                         0           
       0.544348            -0.00032244591                         0           
       0.545027           -0.000322467679                         0           
       0.545707           -0.000322489513                         0           
       0.546386           -0.000322511408                         0           
       0.547065           -0.000322533041                         0           
       0.547744           -0.000322554772                         0           
       0.548423           -0.000322576743                         0           
       0.549102           -0.000322598736                         0           
       0.549782           -0.000322620618                         0           
       0.550461            -0.00032264276                         0           
       0.551140           -0.000322665035                         0           
       0.551819            0.000514616877            0.000659343228           
       0.552498           -0.000322709247                         0           
       0.553177           -0.000322731066                         0           
       0.553856           -0.000322752963                         0           
       0.554536           -0.000322774932                         0           
       0.555215           -0.000322797236                         0           
       0.555894           -0.000322819488                         0           
       0.556573           -0.000322841872                         0           
       0.557252           -0.000322864237                         0           
       0.557931           -0.000322886501                         0           
       0.558611           -0.000322909285                         0           
       0.559290            -0.00032293149                         0           
       0.559969           -0.000322953149                         0           
       0.560648           -0.000322975382                         0           
       0.561327            -0.00032299811                         0           
       0.562006           -0.000323020733                         0           
       0.562686           -0.000323043369                         0           
       0.563365           -0.000323066088                         0           
       0.564044           -0.000323088693                         0           
       0.564723           -0.000323111247                         0           
       0.565402           -0.000323133381                         0           
       0.566081            0.000976196201             0.00112688541           
       0.566761            0.000816909675            0.000965610313           
       0.567440           -0.000323201163                         0           
       0.568119           -0.000323223961                         0           
       0.568798           -0.000323247079                         0           
       0.569477           -0.000323270048                         0           
       0.570156           -0.000323293129                         0           
       0.570836           -0.000323316123                         0           
       0.571515           -0.000323338631                         0           
       0.572194           -0.000323361791                         0           
       0.572873           -0.000323384422                         0           
       0.573552           -0.000323406919                         0           
       0.574231           -0.000323429873                         0           
       0.574911           -0.000323453405                         0           
       0.575590           -0.000323476484                         0           
       0.576269           -0.000323499493                         0           
       0.576948           -0.000323522944                         0           
       0.577627           -0.000323545679                         0           
       0.578306             0.00175474724             0.00191435887           
       0.578985           -0.000323591989                         0           
       0.579665           -0.000323615109                         0           
       0.580344           -0.000323638578                         0           
       0.581023           -0.000323662022                         0           
       0.581702           -0.000323685249                         0           
       0.582381             0.00232269434             0.00247366451           
       0.583060           -0.000323731968                         0           
       0.583740           -0.000323755299                         0           
       0.584419           -0.000323778706                         0           
       0.585098           -0.000323802087                         0           
       0.585777           -0.000323825649                         0           
       0.586456           -0.000323849594                         0           
       0.587135           -0.000323872903                         0           
       0.587815            -0.00032389596                         0           
       0.588494           -0.000323919736                         0           
       0.589173           -0.000323944058                         0           
       0.589852           -0.000323967087                         0           
       0.590531           -0.000323990984                         0           
       0.591210            -0.00032401433                         0           
       0.591890           -0.000324038127                         0           
       0.592569           -0.000324061129                         0           
       0.593248           -0.000324086275                         0           
       0.593927           -0.000324110184                         0           
       0.594606           -0.000324134584                         0           
       0.595285           -0.000324157531                         0           
       0.595965           -0.000324178944                         0           
       0.596644           -0.000324200979                         0           
