################################################################################
# EDF_DataBlockID                     0.Image.Psd
# EDF_BinarySize                      4366944
# EDF_HeaderSize                      2560
# ByteOrder                           LowByteFirst
# DataType                            FloatValue
# Dim_1                               1028
# Dim_2                               1062
# Image                               0
# HeaderID                            EH:000000:000000:000000
# Size                                4366944
# Center_1                            607.5200
# Center_2                            651.5500
# Comment                             Xenocs_Cell_Window - 20251028_20perc_iodine_1.23mg
# DDummy                              0.6
# Date                                2025-11-02T04:56:27
# Delta                               0
# Dummy                               -1.5
# ExposureTime                        360
# Gamma                               0
# Intensity1                          8.76729e-10
# PSize_1                             7.5e-05
# PSize_2                             7.5e-05
# Pressure                            0.0326481
# SampleDistance                      0.450002
# SampleEnvKind                       large
# SampleEnvPN                         ElectroChemical cell
# SampleEnvSN                         1141
# Thickness                           0
# Wavelength                          1.541891e-10
# Wavelength                          1.54189e-10
# aux                                 0
# aux_dial                            0.002375
# beamx                               588.434
# beamx_dial                          588.434
# beamz                               657.808
# beamz_dial                          657.808
# det0x                               0
# det0x_dial                          6.36945
# det0xvd                             0
# det0xvd_dial                        0
# det0y                               450.002
# det0y_dial                          481.635
# det0z                               0
# det0z_dial                          1.23302
# det0zvd                             0
# det0zvd_dial                        0
# mag                                 1.818
# mag_dial                            1.818
# om                                  0.2499
# om_dial                             -0.610199
# phi                                 -0.0120535
# phi_dial                            0
# ry                                  0.599993
# ry_dial                             0.599993
# s1bot                               0.8
# s1bot_dial                          -1.66094
# s1hl                                0.8
# s1hl_dial                           -0.608437
# s1hr                                0.8
# s1hr_dial                           0.970938
# s1top                               0.8
# s1top_dial                          -0.461562
# s2bot                               0.45
# s2bot_dial                          1.36109
# s2hl                                0.45
# s2hl_dial                           -0.83375
# s2hr                                0.45
# s2hr_dial                           -0.118594
# s2top                               0.45
# s2top_dial                          1.44734
# w2theta                             32
# w2theta_dial                        32
# waxsch                              19.2605
# waxsch_dial                         -32.7355
# waxsh                               137.085
# waxsh_dial                          -43.5338
# waxsth                              26.0607
# waxsth_dial                         -19.4086
# waxsz                               67.0407
# waxsz_dial                          -23.7954
# wind                                65.9854
# wind_dial                           66.0041
# wpsi                                124
# wpsi_dial                           124
# wstod                               115
# wstod_dial                          115
# x                                   0
# x_dial                              1.00969
# z                                   0
# z_dial                              13.3172
# CountCutoff                         15302352
# DetectorModel                       Dectris EIGER2 Si 1M, S/N E-02-0362
# ThresholdSetting                    4023.88989258
# Saturation                          0
# FlatField                           Corrected
# BackgroundReductionExtra            0.02
# BackgroundCorrectionConstant        0.0026712
# Detector                            0
# Monitor                             0
# Pil_Roi0                            0
# SumForIntensity1                    3.15622e+08
# TransmittedFlux                     876729
# det                                 0
# mon                                 0
# pilai0                              3.15622e+08
# pilai1                              793425
# pilct0                              5.45199e+08
# pilct1                              793425
# pilroi0                             0
# pilroi1                             0
# sec                                 1
# title                               20251028_20perc_iodine_1.23mg_0_01005.edf
# usaxs0                              0
# Operation                           Azimuthal average I(q)
# Error_model                         ErrorModel.poisson
# Geometrical_correction              True
# Transmission_correction             True
# Thickness_correction                False
# Binning mode                        Uniform
# Binning factor                      1.0
# Psi                                 0.0
# Omega                               0.2499
# MaskInvalidPixels                   True
# DetectorEdge                        3
# MaskFiles                           ['20251028_20perc_iodine_1.23mg_0_00012_mask.edf']
################################################################################
    q(A⁻¹)                Intensity(a.u.)            Sigma_I(a.u.)            
       0.000340                372608.055                119.024055           
       0.001019                359720.779                71.6155008           
       0.001698                350245.862                49.9684427           
       0.002377                331033.675                43.4500659           
       0.003056                307586.551                35.3976212           
       0.003735                253476.208                28.3391527           
       0.004415                204412.092                25.4490547           
       0.005094                152116.491                19.0124143           
       0.005773                 100040.94                14.2746266           
       0.006452                58070.3866                10.4203546           
       0.007131                32232.2772                 7.5207136           
       0.007810                16307.5218                5.30875205           
       0.008490                8274.27867                3.35193873           
       0.009169                4034.91876                2.31333781           
       0.009848                1255.92176                1.24783891           
       0.010527                489.620063               0.779124917           
       0.011206                121.708017                0.37074098           
       0.011885                55.4404948               0.232483758           
       0.012564                25.0384125               0.160403644           
       0.013244                16.9139773               0.123251917           
       0.013923                12.3767936               0.107133316           
       0.014602                9.46590643               0.086893342           
       0.015281                7.28383132              0.0775915114           
       0.015960                5.97891382              0.0697945235           
       0.016639                4.87892573              0.0595369968           
       0.017319                4.01312821               0.053156835           
       0.017998                 3.4029019              0.0468288697           
       0.018677                2.87839625              0.0446076557           
       0.019356                2.46698555              0.0408052946           
       0.020035                2.14946851              0.0357348544           
       0.020714                1.89397404              0.0338989089           
       0.021394                1.64156409               0.029860528           
       0.022073                1.37590914              0.0284428295           
       0.022752                 1.2333728              0.0257607575           
       0.023431                1.06792849              0.0232680413           
       0.024110               0.976078748              0.0231919827           
       0.024789               0.889158552              0.0205572612           
       0.025469               0.791250008              0.0199840994           
       0.026148               0.726170586              0.0179879628           
       0.026827               0.664073542              0.0174769484           
       0.027506               0.628192456              0.0172433602           
       0.028185               0.526374391              0.0150525206           
       0.028864               0.494948135              0.0145143639           
       0.029544               0.453159055              0.0134675705           
       0.030223               0.441791784              0.0134882651           
       0.030902               0.424394991              0.0133410076           
       0.031581               0.379007347              0.0119847601           
       0.032260               0.328949893              0.0113555458           
       0.032939               0.320156026              0.0108018757           
       0.033619               0.290647679              0.0104433066           
       0.034298               0.279603743             0.00996807436           
       0.034977               0.255125903             0.00933463357           
       0.035656               0.220431922             0.00890639154           
       0.036335               0.235096423             0.00892078703           
       0.037014                0.20728023             0.00840141848           
       0.037693               0.191587968             0.00777010554           
       0.038373               0.176594189             0.00753307236           
       0.039052               0.172841152             0.00748430334           
       0.039731                0.14999806             0.00680972867           
       0.040410               0.155338267             0.00688342636           
       0.041089               0.137121825             0.00636593172           
       0.041768               0.147852507             0.00664486411           
       0.042448               0.144436006              0.0065166805           
       0.043127               0.124808175               0.005914663           
       0.043806               0.120317271             0.00585057645           
       0.044485               0.121699737              0.0057632136           
       0.045164               0.107221896             0.00551617366           
       0.045843               0.111991529             0.00540707386           
       0.046523               0.104362888             0.00523769079           
       0.047202              0.0986443195             0.00512775279           
       0.047881               0.099958514             0.00506225557           
       0.048560              0.0991469401             0.00508761674           
       0.049239              0.0935812344             0.00474593711           
       0.049918              0.0916015394             0.00478726049           
       0.050598              0.0915086367             0.00471304461           
       0.051277              0.0937803671             0.00475604749           
       0.051956              0.0895213123             0.00461761398           
       0.052635              0.0825632686             0.00434042251           
       0.053314              0.0780523737             0.00434357199           
       0.053993              0.0791184426             0.00425319178           
       0.054673              0.0746862823             0.00404029438           
       0.055352              0.0744026779             0.00409184926           
       0.056031              0.0717056309             0.00393259847           
       0.056710              0.0660581811             0.00386705489           
       0.057389              0.0727493356             0.00391334994           
       0.058068              0.0719301871             0.00393136802           
       0.058748              0.0683556468             0.00388024579           
       0.059427              0.0690859357              0.0038348723           
       0.060106              0.0613622466             0.00364836113           
       0.060785              0.0584865392              0.0034551249           
       0.061464              0.0645171873             0.00371635711           
       0.062143              0.0616277566             0.00359528805           
       0.062822              0.0592562234             0.00348406309           
       0.063502              0.0580213702             0.00344140991           
       0.064181               0.057116165             0.00337840333           
       0.064860              0.0578797998             0.00345271213           
       0.065539               0.054313653             0.00331194971           
       0.066218              0.0531407201             0.00320584795           
       0.066897              0.0524676467             0.00321007165           
       0.067577              0.0498117833             0.00315782037           
       0.068256              0.0485181061             0.00319310073           
       0.068935              0.0453821375             0.00303824982           
       0.069614               0.052482921             0.00329983288           
       0.070293              0.0419611688             0.00297778307           
       0.070972              0.0416597923             0.00294534573           
       0.071652              0.0469531904             0.00313260867           
       0.072331              0.0447450755             0.00300355963           
       0.073010              0.0417460175             0.00296744508           
       0.073689               0.042859814             0.00299024805           
       0.074368              0.0413928805             0.00293328552           
       0.075047                0.04473481             0.00301662312           
       0.075727              0.0336362259             0.00259962785           
       0.076406              0.0410756109             0.00293007972           
       0.077085              0.0395105003              0.0028200091           
       0.077764               0.036845594             0.00271370462           
       0.078443              0.0376337114             0.00275955409           
       0.079122              0.0365558349             0.00269362078           
       0.079802              0.0351297222             0.00266856189           
       0.080481              0.0388518265             0.00271171056           
       0.081160              0.0368954747             0.00269678116           
       0.081839              0.0368319214             0.00265132035           
       0.082518              0.0331142682             0.00251607281           
       0.083197              0.0354042065             0.00256119162           
       0.083876              0.0313687996             0.00237075397           
       0.084556              0.0356108855             0.00259622445           
       0.085235              0.0355398398              0.0025435233           
       0.085914              0.0360381948             0.00258617543           
       0.086593              0.0302759522              0.0023551642           
       0.087272              0.0310241327             0.00235038736           
       0.087951              0.0330352296             0.00248015823           
       0.088631              0.0378691857              0.0025649779           
       0.089310              0.0342565831             0.00249130826           
       0.089989               0.031327463             0.00235456604           
       0.090668              0.0345559325             0.00250021374           
       0.091347              0.0327599071             0.00244800288           
       0.092026              0.0322469187             0.00232150227           
       0.092706               0.030387961             0.00233539357           
       0.093385              0.0280261631              0.0022083618           
       0.094064              0.0317288062             0.00237706276           
       0.094743              0.0292158244             0.00224622701           
       0.095422              0.0285566568             0.00219597905           
       0.096101              0.0320254546             0.00237342616           
       0.096781              0.0294184177             0.00224220023           
       0.097460              0.0291608687             0.00217146797           
       0.098139              0.0277615692             0.00210242537           
       0.098818              0.0300471285             0.00216032253           
       0.099497              0.0322111882             0.00224135805           
       0.100176              0.0244697679             0.00190227081           
       0.100856              0.0291563363             0.00207513096           
       0.101535               0.029528106             0.00208429134           
       0.102214              0.0272787417             0.00200334379           
       0.102893              0.0268123488             0.00196351435           
       0.103572               0.025902276             0.00190139336           
       0.104251              0.0306752609             0.00207681862           
       0.104931               0.024188851             0.00182742731           
       0.105610               0.026154004             0.00190831561           
       0.106289              0.0280343211             0.00194284413           
       0.106968              0.0239106657             0.00179959904           
       0.107647              0.0260367535             0.00187903086           
       0.108326              0.0278781645             0.00191833053           
       0.109005              0.0253221054              0.0018167709           
       0.109685              0.0248480675             0.00177949826           
       0.110364              0.0238760408              0.0017641573           
       0.111043              0.0240958158             0.00176523119           
       0.111722               0.025369451             0.00178914413           
       0.112401              0.0258772127             0.00181198488           
       0.113080              0.0265270936             0.00181357334           
       0.113760              0.0233814423             0.00173109107           
       0.114439              0.0266402609             0.00182142257           
       0.115118              0.0268966568              0.0018163667           
       0.115797              0.0231429499             0.00170046838           
       0.116476              0.0243439186             0.00171792891           
       0.117155              0.0215513115             0.00162942921           
       0.117835              0.0259132175             0.00175121181           
       0.118514               0.021120086             0.00160102405           
       0.119193              0.0202441311             0.00156748256           
       0.119872              0.0185941127             0.00148345778           
       0.120551              0.0200832956             0.00153144851           
       0.121230              0.0219469909             0.00158481955           
       0.121910              0.0216787019             0.00159032597           
       0.122589              0.0205802756             0.00155110928           
       0.123268              0.0240501024             0.00164429207           
       0.123947              0.0222017922             0.00159006256           
       0.124626              0.0214560653             0.00154401835           
       0.125305              0.0195151919             0.00147975505           
       0.125985               0.021882077             0.00155476461           
       0.126664              0.0203433868             0.00148482528           
       0.127343              0.0199602298             0.00148782406           
       0.128022              0.0209591336             0.00151290479           
       0.128701               0.020850542             0.00150111985           
       0.129380              0.0217745333             0.00151480748           
       0.130059              0.0218064617             0.00151943816           
       0.130739              0.0243567068             0.00161712317           
       0.131418              0.0225911707             0.00155305045           
       0.132097               0.018919058             0.00140300812           
       0.132776              0.0217071163             0.00149605085           
       0.133455              0.0234356632             0.00156655257           
       0.134134              0.0214046942             0.00149236694           
       0.134814              0.0180994531             0.00135817511           
       0.135493              0.0216464859             0.00149131973           
       0.136172              0.0208003654             0.00145084688           
       0.136851              0.0204475652             0.00144685629           
       0.137530              0.0187796318             0.00135364713           
       0.138209              0.0209258494              0.0014456815           
       0.138889              0.0196254309             0.00140621215           
       0.139568              0.0227003476             0.00151171444           
       0.140247              0.0213764849             0.00146504897           
       0.140926              0.0186084482             0.00132782348           
       0.141605              0.0206180653             0.00143319395           
       0.142284              0.0206629878             0.00141097955           
       0.142964               0.023359262             0.00150595375           
       0.143643              0.0214708067             0.00144197351           
       0.144322              0.0196586098             0.00135090662           
       0.145001              0.0203841762             0.00140384659           
       0.145680              0.0194873836             0.00134014441           
       0.146359              0.0178730404             0.00128813028           
       0.147039              0.0199818848             0.00137321852           
       0.147718              0.0201075476             0.00135479879           
       0.148397               0.019147374              0.0013425999           
       0.149076               0.021317102             0.00137268265           
       0.149755              0.0208115578             0.00137725033           
       0.150434              0.0179036409             0.00127793419           
       0.151114               0.018367506             0.00128722396           
       0.151793              0.0192543637             0.00131794603           
       0.152472              0.0184867924             0.00126859744           
       0.153151               0.018748279             0.00128988884           
       0.153830              0.0207416706             0.00134684519           
       0.154509              0.0184997733             0.00126666921           
       0.155188              0.0173518847             0.00122628888           
       0.155868              0.0185512034             0.00125893694           
       0.156547              0.0173324809             0.00122469821           
       0.157226              0.0181398949             0.00122229764           
       0.157905              0.0170931052             0.00119647252           
       0.158584              0.0188795081             0.00125515647           
       0.159263              0.0189153137              0.0012609688           
       0.159943              0.0185550971             0.00124983582           
       0.160622              0.0163777906               0.001151558           
       0.161301              0.0168183976             0.00118255341           
       0.161980              0.0183816772             0.00121527413           
       0.162659              0.0210144003             0.00131379423           
       0.163338              0.0192508309             0.00124720926           
       0.164018              0.0183094934             0.00120994972           
       0.164697              0.0183794336             0.00122782427           
       0.165376              0.0175718714             0.00117431651           
       0.166055              0.0191541475              0.0012341341           
       0.166734              0.0212901223             0.00129529953           
       0.167413              0.0166220694             0.00114532209           
       0.168093               0.016081245             0.00113719188           
       0.168772              0.0206508813             0.00125098726           
       0.169451              0.0164498153             0.00113705581           
       0.170130              0.0180367651             0.00117500936           
       0.170809              0.0196531073             0.00124116578           
       0.171488               0.016850261             0.00113878115           
       0.172168              0.0170319756             0.00113390624           
       0.172847              0.0178694529             0.00117670607           
       0.173526              0.0172906532             0.00113541122           
       0.174205              0.0175838942             0.00115027206           
       0.174884              0.0176409539             0.00114613282           
       0.175563              0.0168081318             0.00112352817           
       0.176243              0.0168521057             0.00113625554           
       0.176922              0.0177859373             0.00113689284           
       0.177601              0.0155768443             0.00107564177           
       0.178280              0.0163925542             0.00109112896           
       0.178959              0.0180576423              0.0011544164           
       0.179638               0.016773218             0.00110939888           
       0.180317              0.0137248125            0.000996224776           
       0.180997              0.0155604451             0.00106651267           
       0.181676              0.0190064646             0.00116612057           
       0.182355              0.0191041807             0.00117613596           
       0.183034              0.0161496902             0.00106401756           
       0.183713              0.0169740532             0.00110412075           
       0.184392              0.0171067171             0.00110809178           
       0.185072              0.0181358044             0.00112793195           
       0.185751              0.0175308277             0.00111204461           
       0.186430              0.0185237493             0.00113509685           
       0.187109              0.0169538841              0.0010980269           
       0.187788              0.0163705364             0.00107631107           
       0.188467               0.017218206              0.0010907624           
       0.189147              0.0159830072             0.00106155231           
       0.189826               0.017445081             0.00108943165           
       0.190505              0.0144479785             0.00100776185           
       0.191184              0.0162081659             0.00105200205           
       0.191863              0.0174542008             0.00109399061           
       0.192542              0.0166610565             0.00107892483           
       0.193222              0.0164383914             0.00104767421           
       0.193901              0.0164959244             0.00106357313           
       0.194580              0.0145130253             0.00098015302           
       0.195259              0.0155943033             0.00102767849           
       0.195938              0.0175807973             0.00109377777           
       0.196617              0.0166923422             0.00105090532           
       0.197297              0.0169794117             0.00106423109           
       0.197976              0.0152082389            0.000991725281           
       0.198655              0.0166731338             0.00104973224           
       0.199334              0.0155775009             0.00100570802           
       0.200013              0.0159110914             0.00101585597           
       0.200692              0.0159056665             0.00102179209           
       0.201371              0.0163832045             0.00102533829           
       0.202051              0.0168791288             0.00104397768           
       0.202730              0.0138019965            0.000934604063           
       0.203409              0.0161718375             0.00101845535           
       0.204088              0.0152294607            0.000987242723           
       0.204767              0.0161518032             0.00101135487           
       0.205446              0.0153273093            0.000987128863           
       0.206126               0.016404892             0.00100736473           
       0.206805              0.0134687012            0.000929506667           
       0.207484              0.0157564603             0.00098728012           
       0.208163              0.0159614323            0.000999652132           
       0.208842              0.0158225869            0.000992597674           
       0.209521              0.0161666197            0.000994992423           
       0.210201               0.016071509             0.00100313189           
       0.210880              0.0165354831            0.000997542134           
       0.211559              0.0157373738            0.000987558883           
       0.212238              0.0154486945             0.00097348039           
       0.212917               0.016598805             0.00100531725           
       0.213596              0.0148454925            0.000956362178           
       0.214276              0.0153326822             0.00095167945           
       0.214955              0.0180310891             0.00105373355           
       0.215634              0.0163070644             0.00099491036           
       0.216313               0.014543945            0.000937614381           
       0.216992               0.015005034            0.000952122577           
       0.217671              0.0141735283              0.0009190976           
       0.218351              0.0155386576            0.000971753743           
       0.219030              0.0161582906            0.000975297879           
       0.219709              0.0159586702             0.00097530069           
       0.220388              0.0162038587            0.000981501846           
       0.221067              0.0156390204             0.00096500785           
       0.221746               0.015719122            0.000966485014           
       0.222426              0.0168690068            0.000986248298           
       0.223105              0.0149552491            0.000941271703           
       0.223784              0.0157063565            0.000955050975           
       0.224463              0.0140922807            0.000911851972           
       0.225142              0.0160741767            0.000958454504           
       0.225821              0.0162766799            0.000968357869           
       0.226500              0.0157373331            0.000958233173           
       0.227180              0.0145764449            0.000908005557           
       0.227859              0.0145278902            0.000910558661           
       0.228538              0.0162742655            0.000954057068           
       0.229217              0.0139442276            0.000890112734           
       0.229896              0.0137013624            0.000881902408           
       0.230575              0.0153004388            0.000917089825           
       0.231255              0.0162207274             0.00095840495           
       0.231934              0.0139281616            0.000882030325           
       0.232613               0.015382833            0.000930366629           
       0.233292               0.014643073              0.0008989501           
       0.233971              0.0160060551            0.000939418054           
       0.234650              0.0172200167            0.000985852791           
       0.235330              0.0143181035            0.000891105204           
       0.236009              0.0147616239            0.000902851157           
       0.236688              0.0149232468            0.000904531608           
       0.237367              0.0157474529             0.00093052397           
       0.238046              0.0161194625            0.000948081071           
       0.238725              0.0163290779            0.000939503897           
       0.239405              0.0154869919            0.000920631912           
       0.240084              0.0141051666            0.000873006221           
       0.240763              0.0138370669            0.000872949186           
       0.241442              0.0161079989            0.000928591725           
       0.242121              0.0144521324            0.000881229405           
       0.242800              0.0158437191             0.00092704917           
       0.243480              0.0146761095            0.000888058155           
       0.244159              0.0148344781            0.000893268793           
       0.244838              0.0147824934            0.000877029621           
       0.245517              0.0149404556            0.000894385966           
       0.246196              0.0162512256            0.000933244577           
       0.246875              0.0131883659            0.000828993909           
       0.247554              0.0152068687            0.000899222774           
       0.248234              0.0133948407            0.000831152045           
       0.248913              0.0147164828            0.000880963927           
       0.249592              0.0156823491            0.000900772462           
       0.250271               0.014416166            0.000861135573           
       0.250950              0.0161426525            0.000916823979           
       0.251629              0.0136062505            0.000834566081           
       0.252309               0.014180735            0.000853731696           
       0.252988              0.0142757511            0.000841831985           
       0.253667              0.0140105082            0.000843718748           
       0.254346               0.016195147            0.000906930112           
       0.255025              0.0132709302            0.000819180625           
       0.255704              0.0138199606            0.000832125281           
       0.256384              0.0142212166            0.000841198767           
       0.257063              0.0128277481            0.000803479019           
       0.257742              0.0146647826            0.000853134533           
       0.258421               0.013428044            0.000814796814           
       0.259100              0.0130247337            0.000803866729           
       0.259779              0.0127539172            0.000794791324           
       0.260459              0.0128674273            0.000799888046           
       0.261138              0.0136839376            0.000808756397           
       0.261817              0.0122641515            0.000781106465           
       0.262496              0.0138300465            0.000821340234           
       0.263175              0.0145124212            0.000843165878           
       0.263854              0.0127801136            0.000787567967           
       0.264534              0.0131917076            0.000793315698           
       0.265213              0.0115948629            0.000755473014           
       0.265892              0.0123994173            0.000771235047           
       0.266571              0.0137763623             0.00081108179           
       0.267250              0.0133270268            0.000799088707           
       0.267929              0.0125815099            0.000775620346           
       0.268609               0.012096121             0.00076467568           
       0.269288              0.0134367828            0.000792550002           
       0.269967              0.0121928667            0.000763108195           
       0.270646              0.0121355748             0.00075802223           
       0.271325              0.0130727914            0.000788062522           
       0.272004              0.0150612756            0.000837445323           
       0.272683              0.0134972174            0.000793750463           
       0.273363              0.0124830103            0.000768214708           
       0.274042              0.0125695547            0.000766324998           
       0.274721              0.0125207515            0.000764382412           
       0.275400              0.0116395121            0.000732112525           
       0.276079              0.0113999495            0.000728653339           
       0.276758              0.0116526852            0.000745982836           
       0.277438              0.0106965845            0.000706701136           
       0.278117              0.0116885785            0.000752177261           
       0.278796              0.0108732514            0.000718105591           
       0.279475              0.0129039126            0.000795215793           
       0.280154              0.0112345136            0.000731322693           
       0.280833              0.0117674441            0.000753019212           
       0.281513              0.0117512641            0.000764307082           
       0.282192              0.0120072107            0.000759405115           
       0.282871              0.0130309987            0.000796646232           
       0.283550             0.00992094149            0.000698834364           
       0.284229              0.0108699248            0.000742238265           
       0.284908              0.0126423367            0.000808910683           
       0.285588              0.0104623485            0.000727253553           
       0.286267              0.0116110538            0.000778405347           
       0.286946              0.0115647039            0.000771798237           
       0.287625              0.0123416113            0.000810876687           
       0.288304               0.011180927             0.00076147507           
       0.288983              0.0103398098            0.000741546307           
       0.289663              0.0109205447             0.00076654667           
       0.290342              0.0101206253            0.000734010269           
       0.291021              0.0119410012             0.00080159003           
       0.291700              0.0105343013            0.000743060166           
       0.292379             0.00900547324            0.000702758138           
       0.293058               0.010506937            0.000756218161           
       0.293738              0.0104401341            0.000747480257           
       0.294417              0.0128273134            0.000838172337           
       0.295096             0.00963248797            0.000718346433           
       0.295775              0.0095479449            0.000726109371           
       0.296454              0.0101701353            0.000739701436           
       0.297133             0.00951649397            0.000718921356           
       0.297812              0.0108654143            0.000772038217           
       0.298492              0.0102007752            0.000749498091           
       0.299171              0.0111508036            0.000782140194           
       0.299850             0.00898987519            0.000697481287           
       0.300529              0.0104206476            0.000759395175           
       0.301208              0.0100918047            0.000749135561           
       0.301887             0.00992690309            0.000742106949           
       0.302567             0.00908030322            0.000706202446           
       0.303246              0.0108052448            0.000775394216           
       0.303925             0.00973263672            0.000745351706           
       0.304604             0.00912876878            0.000706271542           
       0.305283             0.00940267387            0.000727419757           
       0.305962              0.0100726173             0.00074834003           
       0.306642             0.00882884802            0.000710131027           
       0.307321               0.010917823            0.000787164474           
       0.308000             0.00981030424            0.000737327017           
       0.308679             0.00841760957            0.000697778878           
       0.309358             0.00902935544            0.000712913701           
       0.310037             0.00945502063            0.000731149831           
       0.310717             0.00909433249            0.000716378455           
       0.311396             0.00940080214            0.000733233828           
       0.312075             0.00883541226            0.000719856908           
       0.312754             0.00981241474             0.00074343728           
       0.313433             0.00969976687            0.000745586089           
       0.314112             0.00793019417            0.000673999165           
       0.314792             0.00839379021            0.000698316963           
       0.315471             0.00863680236            0.000699593543           
       0.316150             0.00923753134            0.000730210595           
       0.316829             0.00832729847            0.000697879911           
       0.317508             0.00950654604             0.00073729137           
       0.318187             0.00849184768            0.000706025627           
       0.318866             0.00847766412            0.000695932772           
       0.319546             0.00980504084            0.000759653477           
       0.320225             0.00880332769             0.00071981808           
       0.320904             0.00892227883            0.000713460056           
       0.321583             0.00880944081            0.000724555367           
       0.322262             0.00962109528            0.000745722301           
       0.322941              0.0077451441            0.000677654478           
       0.323621             0.00787101836            0.000678969879           
       0.324300             0.00842566842             0.00070303587           
       0.324979             0.00909613341            0.000731792842           
       0.325658             0.00854529495            0.000710575851           
       0.326337             0.00637532648            0.000614560483           
       0.327016             0.00729099095            0.000653041423           
       0.327696             0.00907297045            0.000736589726           
       0.328375              0.0090634069            0.000729989074           
       0.329054             0.00935827572            0.000745791901           
       0.329733             0.00956211129            0.000756623422           
       0.330412             0.00821958811            0.000695752602           
       0.331091             0.00779101888            0.000689658685           
       0.331771             0.00714851841             0.00064329979           
       0.332450             0.00749861356            0.000671656133           
       0.333129             0.00739752991            0.000665392294           
       0.333808             0.00718136724            0.000656465036           
       0.334487              0.0068878404            0.000645957332           
       0.335166             0.00709884916            0.000646179643           
       0.335846             0.00706329917            0.000655886599           
       0.336525             0.00613550141            0.000605258458           
       0.337204             0.00682774567            0.000640164485           
       0.337883             0.00689592036            0.000644205343           
       0.338562             0.00717021212            0.000660537664           
       0.339241             0.00614937084            0.000612858148           
       0.339921             0.00752952944            0.000666781748           
       0.340600             0.00747794649            0.000677112897           
       0.341279             0.00580722525            0.000590307912           
       0.341958             0.00646459042            0.000631610152           
       0.342637             0.00724352456            0.000659135139           
       0.343316             0.00553062993            0.000577620189           
       0.343995             0.00685972451            0.000653825742           
       0.344675             0.00725361448            0.000659979305           
       0.345354             0.00577023726            0.000592523007           
       0.346033             0.00804251197            0.000697703101           
       0.346712             0.00569047601            0.000590624475           
       0.347391             0.00682328849            0.000650750901           
       0.348070             0.00517673731            0.000558771364           
       0.348750             0.00700036505            0.000659169112           
       0.349429             0.00616863394            0.000610784263           
       0.350108             0.00766039031            0.000688832547           
       0.350787              0.0074728302            0.000668789135           
       0.351466             0.00607271044            0.000613995756           
       0.352145             0.00595880128            0.000608714677           
       0.352825             0.00640777187             0.00062837113           
       0.353504             0.00652593069            0.000633982707           
       0.354183             0.00708029313             0.00065275349           
       0.354862             0.00492085227            0.000556826794           
       0.355541             0.00582455732            0.000597869121           
       0.356220             0.00596319365            0.000606085205           
       0.356900             0.00577612813            0.000602168843           
       0.357579             0.00569183697            0.000590429304           
       0.358258             0.00591978021            0.000610468493           
       0.358937             0.00562944345            0.000584117971           
       0.359616             0.00540484154            0.000580339303           
       0.360295             0.00587032631            0.000605317555           
       0.360975             0.00648578247            0.000633536995           
       0.361654             0.00499224795            0.000558691568           
       0.362333              0.0061792582            0.000618412551           
       0.363012             0.00482286959            0.000553369235           
       0.363691             0.00443207235            0.000520010108           
       0.364370             0.00518946401            0.000569671029           
       0.365050             0.00494655815            0.000553202682           
       0.365729             0.00604897438            0.000617582498           
       0.366408             0.00545540967            0.000587798324           
       0.367087             0.00563482394             0.00058780438           
       0.367766             0.00638773591            0.000638884045           
       0.368445             0.00555255199            0.000585079524           
       0.369124             0.00593816688            0.000609808033           
       0.369804             0.00518629084            0.000568983801           
       0.370483              0.0052150775            0.000573057128           
       0.371162             0.00421262086            0.000518029341           
       0.371841              0.0057068531             0.00059243072           
       0.372520             0.00455330758            0.000539786337           
       0.373199             0.00418213906            0.000511137458           
       0.373879             0.00582318346             0.00061012388           
       0.374558             0.00416182666            0.000508271448           
       0.375237             0.00472712958            0.000542580046           
       0.375916             0.00503933377            0.000570943157           
       0.376595             0.00565022597            0.000592743897           
       0.377274             0.00448882404            0.000536781026           
       0.377954             0.00422932172             0.00051284926           
       0.378633              0.0048530354            0.000556307615           
       0.379312             0.00484873216            0.000555920539           
       0.379991             0.00467505334            0.000543048035           
       0.380670             0.00549491344             0.00059914837           
       0.381349             0.00451414153             0.00053525483           
       0.382029             0.00432832962            0.000531632714           
       0.382708             0.00486983314            0.000551594141           
       0.383387             0.00394282153            0.000507572875           
       0.384066             0.00487838004            0.000559408982           
       0.384745             0.00459955864            0.000545322727           
       0.385424             0.00430446507            0.000529331403           
       0.386104             0.00337678952             0.00046365394           
       0.386783             0.00433707565            0.000536826621           
       0.387462             0.00303941249            0.000438217596           
       0.388141             0.00411774016            0.000518210329           
       0.388820             0.00392171872            0.000502069726           
       0.389499             0.00325406415            0.000459914266           
       0.390178             0.00532554225            0.000590706519           
       0.390858             0.00355178882            0.000478503307           
       0.391537             0.00442918288            0.000539803136           
       0.392216             0.00390151844            0.000500279259           
       0.392895             0.00420650324            0.000521215005           
       0.393574              0.0040477737             0.00051001924           
       0.394253              0.0044351471            0.000536267964           
       0.394933             0.00425723447            0.000531405773           
       0.395612             0.00393978719            0.000496360117           
       0.396291             0.00346319371            0.000474844873           
       0.396970             0.00467760164            0.000546965605           
       0.397649             0.00444629006            0.000534912038           
       0.398328             0.00439936901            0.000529743346           
       0.399008              0.0043806833            0.000527468309           
       0.399687             0.00364923146            0.000483294474           
       0.400366             0.00438291339            0.000527628561           
       0.401045              0.0037415967            0.000486579085           
       0.401724             0.00464263752            0.000542914769           
       0.402403             0.00413574715            0.000516414059           
       0.403083             0.00426864857            0.000517080682           
       0.403762             0.00354598658            0.000473606842           
       0.404441             0.00494251329            0.000562704788           
       0.405120              0.0043345735            0.000525234652           
       0.405799             0.00385464584            0.000493152918           
       0.406478             0.00334017935            0.000459076611           
       0.407158              0.0040818255            0.000506537562           
       0.407837             0.00401670528            0.000506915827           
       0.408516             0.00305376626            0.000438151317           
       0.409195              0.0039699543            0.000505240154           
       0.409874             0.00331364874            0.000468014306           
       0.410553             0.00412882422            0.000528037803           
       0.411233             0.00301174732            0.000448647145           
       0.411912             0.00414528594            0.000533805787           
       0.412591             0.00385429843            0.000518135697           
       0.413270             0.00320009944            0.000469877255           
       0.413949             0.00334275977             0.00048548178           
       0.414628              0.0037613417             0.00051405702           
       0.415307             0.00384424839            0.000525472309           
       0.415987             0.00300305162            0.000460608404           
       0.416666             0.00330951457            0.000480630974           
       0.417345             0.00250245233            0.000424917891           
       0.418024             0.00386729296            0.000528246599           
       0.418703             0.00277016602            0.000446259517           
       0.419382              0.0036733131            0.000511363972           
       0.420062             0.00297804372            0.000461723291           
       0.420741             0.00351625444            0.000504382338           
       0.421420              0.0023772587            0.000416295669           
       0.422099             0.00143779217            0.000323759868           
       0.422778             0.00197217416            0.000381235281           
       0.423457             0.00266673219            0.000446026086           
       0.424137             0.00286008652            0.000454385312           
       0.424816             0.00262207515            0.000444160732           
       0.425495             0.00260916935            0.000442647162           
       0.426174             0.00254267928            0.000437123729           
       0.426853             0.00295798854             0.00046860916           
       0.427532             0.00301559265            0.000477150372           
       0.428212             0.00197623027            0.000388816913           
       0.428891              0.0020480578            0.000394919474           
       0.429570             0.00303802686            0.000481315774           
       0.430249             0.00232918641            0.000419252541           
       0.430928             0.00252639456            0.000446188834           
       0.431607             0.00143600724            0.000330612569           
       0.432287             0.00254489754             0.00044334863           
       0.432966             0.00259106411             0.00045128683           
       0.433645             0.00284511854            0.000473387792           
       0.434324             0.00232476392            0.000425334376           
       0.435003             0.00194876867            0.000390087761           
       0.435682             0.00231126303            0.000428306094           
       0.436361              0.0012711436            0.000317208814           
       0.437041             0.00197666995            0.000395034522           
       0.437720             0.00168373675            0.000366348825           
       0.438399             0.00178667788            0.000379350989           
       0.439078             0.00163291823            0.000373177006           
       0.439757             0.00179813244            0.000389188293           
       0.440436              0.0029432881            0.000509148151           
       0.441116             0.00231927058            0.000459354134           
       0.441795             0.00277692479            0.000503242024           
       0.442474              0.0027989076            0.000506638791           
       0.443153             0.00266461865            0.000505868029           
       0.443832             0.00228269893            0.000469002805           
       0.444511              0.0034092779            0.000570585919           
       0.445191             0.00149134756            0.000386559448           
       0.445870             0.00118832022            0.000345068616           
       0.446549             0.00234939014            0.000490311393           
       0.447228              0.0020137874            0.000451377844           
       0.447907             0.00226290245            0.000484224295           
       0.448586             0.00229935906            0.000499853699           
       0.449266             0.00245595729             0.00051184291           
       0.449945             0.00158471336            0.000409474264           
       0.450624             0.00235832633             0.00050745294           
       0.451303             0.00203892513            0.000477956023           
       0.451982             0.00167602912            0.000430660441           
       0.452661             0.00256532177            0.000542727243           
       0.453341             0.00211558212            0.000494589553           
       0.454020              0.0028222311            0.000572120617           
       0.454699             0.00310551937            0.000605629393           
       0.455378             0.00218230934            0.000507961714           
       0.456057             0.00188092423            0.000479970245           
       0.456736             0.00261160113            0.000563800813           
       0.457416             0.00212081595            0.000508084675           
       0.458095             0.00193746965             0.00049265414           
       0.458774             0.00161526857            0.000455773407           
       0.459453              0.0012382354            0.000401063438           
       0.460132             0.00266279053            0.000575437494           
       0.460811              0.0024804907            0.000576111904           
       0.461490             0.00230397611            0.000549588255           
       0.462170             0.00224900422             0.00055146581           
       0.462849             0.00200720933            0.000524357506           
       0.463528             0.00200153261            0.000522401262           
       0.464207             0.00237030478            0.000579129945           
       0.464886             0.00218655868            0.000551898942           
       0.465565              0.0012586293            0.000423323793           
       0.466245             0.00239943197            0.000586304944           
       0.466924             0.00148726635            0.000472501576           
       0.467603            0.000541819891            0.000279142208           
       0.468282             0.00178655349            0.000518900772           
       0.468961            0.000605924874            0.000304179099           
       0.469640            0.000920572892            0.000376424746           
       0.470320            0.000916480898            0.000375846796           
       0.470999            0.000946692262            0.000385594294           
       0.471678            0.000488123013            0.000279540899           
       0.472357             0.00242635332            0.000624983388           
       0.473036            0.000989598543            0.000401655458           
       0.473715             0.00100501794            0.000407939028           
       0.474395            0.000872440046            0.000385334909           
       0.475074             0.00103902001            0.000420528239           
       0.475753            0.000686896157            0.000338972976           
       0.476432            0.000770171475             0.00037200018           
       0.477111            0.000386119295            0.000260211397           
       0.477790             0.00198475085            0.000593106671           
       0.478470            0.000576461781            0.000323869968           
       0.479149             0.00023265832            0.000207880456           
       0.479828              0.0015184294            0.000529819695           
       0.480507           -0.000130986423                         0           
       0.481186            0.000462274044            0.000301334741           
       0.481865            0.000816388693            0.000395490795           
       0.482545            0.000657788928            0.000359172262           
       0.483224            0.000265197015             0.00022961554           
       0.483903            0.000900256865            0.000429722158           
       0.484582            0.000525338947            0.000333603004           
       0.485261            0.000660353851            0.000364547038           
       0.485940            0.000115992837            0.000158948466           
       0.486619            0.000106103828            0.000150349658           
       0.487299           -9.18638565e-05                         0           
       0.487978            0.000116979716            0.000158749939           
       0.488657            0.000148591962            0.000186301929           
       0.489336            0.000807595921            0.000426711936           
       0.490015            0.000131157856            0.000173314366           
       0.490694           -8.42607361e-05                         0           
       0.491374            0.000158795072             0.00019358762           
       0.492053           -5.81464988e-05                         0           
       0.492732           -0.000311461391                         0           
       0.493411           -7.69228257e-05                         0           
       0.494090           -0.000311499673                         0           
       0.494769           -0.000311518506                         0           
       0.495449           -0.000311537603                         0           
       0.496128           -4.95179957e-05                         0           
       0.496807           -0.000311575706                         0           
       0.497486           -4.90338452e-05                         0           
       0.498165           -3.62747495e-05                         0           
       0.498844            0.000515334034            0.000377895833           
       0.499524           -3.24341333e-05                         0           
       0.500203           -2.73836965e-05                         0           
       0.500882           -0.000311691134                         0           
       0.501561           -0.000311710308                         0           
       0.502240           -2.39291862e-05                         0           
       0.502919           -0.000311749083                         0           
       0.503599           -2.16600912e-05                         0           
       0.504278           -4.63838622e-06                         0           
       0.504957           -0.000311807664                         0           
       0.505636           -0.000311827003                         0           
       0.506315            -0.00031184666                         0           
       0.506994           -0.000311865966                         0           
       0.507673           -0.000311885232                         0           
       0.508353            1.41510711e-05             6.7654852e-05           
       0.509032            0.000404421812            0.000378870565           
       0.509711            -0.00031194409                         0           
       0.510390           -0.000311963994                         0           
       0.511069           -0.000311983833                         0           
       0.511748            4.53387784e-05            0.000127453772           
       0.512428            6.43672609e-05            0.000154741972           
       0.513107           -0.000312043085                         0           
       0.513786            -0.00031206274                         0           
       0.514465            -0.00031208273                         0           
       0.515144           -0.000312102707                         0           
       0.515823           -0.000312122501                         0           
       0.516503           -0.000312142481                         0           
       0.517182             0.00010110356            0.000204327647           
       0.517861           -0.000312182389                         0           
       0.518540           -0.000312202431                         0           
       0.519219            0.000117505999            0.000223481955           
       0.519898           -0.000312242485                         0           
       0.520578            0.000128687713            0.000236482643           
       0.521257           -0.000312282721                         0           
       0.521936           -0.000312302756                         0           
       0.522615           -0.000312323031                         0           
       0.523294           -0.000312343381                         0           
       0.523973            -0.00031236345                         0           
       0.524653           -0.000312383374                         0           
       0.525332           -0.000312403588                         0           
       0.526011           -0.000312424166                         0           
       0.526690           -0.000312444705                         0           
       0.527369           -0.000312465074                         0           
       0.528048           -0.000312485588                         0           
       0.528728           -0.000312506078                         0           
       0.529407            0.000209189373            0.000332785096           
       0.530086           -0.000312546763                         0           
       0.530765           -0.000312567082                         0           
       0.531444           -0.000312587619                         0           
       0.532123           -0.000312608521                         0           
       0.532802            0.000784318059            0.000644483149           
       0.533482            0.000258233418            0.000383043906           
       0.534161           -0.000312670604                         0           
       0.534840             0.00027087792            0.000394254159           
       0.535519           -0.000312712016                         0           
       0.536198           -0.000312732695                         0           
       0.536877           -0.000312753089                         0           
       0.537557            0.000250213487            0.000375306156           
       0.538236           -0.000312794767                         0           
       0.538915           -0.000312815691                         0           
       0.539594           -0.000312836588                         0           
       0.540273            0.000287701802            0.000416764499           
       0.540952           -0.000312878797                         0           
       0.541632             -0.0003128994                         0           
       0.542311           -0.000312920192                         0           
       0.542990           -0.000312941217                         0           
       0.543669           -0.000312962417                         0           
       0.544348           -0.000312983593                         0           
       0.545027           -0.000313004722                         0           
       0.545707           -0.000313025916                         0           
       0.546386           -0.000313047169                         0           
       0.547065           -0.000313068167                         0           
       0.547744            -0.00031308926                         0           
       0.548423           -0.000313110586                         0           
       0.549102           -0.000313131934                         0           
       0.549782           -0.000313153173                         0           
       0.550461           -0.000313174665                         0           
       0.551140           -0.000313196287                         0           
       0.551819           -0.000313217653                         0           
       0.552498           -0.000313239201                         0           
       0.553177            -0.00031326038                         0           
       0.553856           -0.000313281634                         0           
       0.554536            0.000486765668            0.000625334775           
       0.555215            0.000641014405            0.000769442334           
       0.555894           -0.000313346207                         0           
       0.556573           -0.000313367934                         0           
       0.557252           -0.000313389643                         0           
       0.557931             0.00154340197              0.0012036178           
       0.558611           -0.000313433369                         0           
       0.559290           -0.000313454923                         0           
       0.559969           -0.000313475946                         0           
       0.560648            0.000590094414            0.000724331939           
       0.561327           -0.000313519588                         0           
       0.562006           -0.000313541547                         0           
       0.562686             0.00202650824             0.00155012294           
       0.563365           -0.000313585571                         0           
       0.564044           -0.000313607512                         0           
       0.564723           -0.000313629405                         0           
       0.565402            -0.00031365089                         0           
       0.566081           -0.000313672517                         0           
       0.566761           -0.000313694377                         0           
       0.567440           -0.000313716682                         0           
       0.568119           -0.000313738811                         0           
       0.568798            -0.00031376125                         0           
       0.569477           -0.000313783546                         0           
       0.570156           -0.000313805949                         0           
       0.570836           -0.000313828268                         0           
       0.571515           -0.000313850116                         0           
       0.572194           -0.000313872597                         0           
       0.572873           -0.000313894563                         0           
       0.573552             -0.0003139164                         0           
       0.574231            -0.00031393868                         0           
       0.574911           -0.000313961522                         0           
       0.575590           -0.000313983924                         0           
       0.576269           -0.000314006257                         0           
       0.576948            -0.00031402902                         0           
       0.577627           -0.000314051088                         0           
       0.578306           -0.000314073468                         0           
       0.578985           -0.000314096039                         0           
       0.579665           -0.000314118481                         0           
       0.580344           -0.000314141261                         0           
       0.581023           -0.000314164017                         0           
       0.581702           -0.000314186563                         0           
       0.582381           -0.000314208903                         0           
       0.583060             0.00227717772             0.00243985569           
       0.583740           -0.000314254556                         0           
       0.584419           -0.000314277277                         0           
       0.585098           -0.000314299971                         0           
       0.585777           -0.000314322842                         0           
       0.586456           -0.000314346085                         0           
       0.587135           -0.000314368709                         0           
       0.587815            -0.00031439109                         0           
       0.588494           -0.000314414168                         0           
       0.589173           -0.000314437776                         0           
       0.589852           -0.000314460129                         0           
       0.590531           -0.000314483326                         0           
       0.591210           -0.000314505987                         0           
       0.591890           -0.000314529085                         0           
       0.592569           -0.000314551411                         0           
       0.593248            -0.00031457582                         0           
       0.593927           -0.000314599027                         0           
       0.594606           -0.000314622712                         0           
       0.595285           -0.000314644985                         0           
       0.595965           -0.000314665769                         0           
       0.596644           -0.000314687158                         0           
