################################################################################
# EDF_DataBlockID                     0.Image.Psd
# EDF_BinarySize                      4366944
# EDF_HeaderSize                      2560
# ByteOrder                           LowByteFirst
# DataType                            FloatValue
# Dim_1                               1028
# Dim_2                               1062
# Image                               0
# HeaderID                            EH:000000:000000:000000
# Size                                4366944
# Center_1                            607.5200
# Center_2                            651.5500
# Comment                             Xenocs_Cell_Window - 20251028_20perc_iodine_1.23mg
# DDummy                              0.6
# Date                                2025-10-30T13:20:10
# Delta                               0
# Dummy                               -1.5
# ExposureTime                        360
# Gamma                               0
# Intensity1                          8.51638e-10
# PSize_1                             7.5e-05
# PSize_2                             7.5e-05
# Pressure                            0.0326347
# SampleDistance                      0.450002
# SampleEnvKind                       large
# SampleEnvPN                         ElectroChemical cell
# SampleEnvSN                         1141
# Thickness                           0
# Wavelength                          1.541891e-10
# Wavelength                          1.54189e-10
# aux                                 0
# aux_dial                            0.002375
# beamx                               588.434
# beamx_dial                          588.434
# beamz                               657.808
# beamz_dial                          657.808
# det0x                               0
# det0x_dial                          6.36945
# det0xvd                             0
# det0xvd_dial                        0
# det0y                               450.002
# det0y_dial                          481.635
# det0z                               0
# det0z_dial                          1.23302
# det0zvd                             0
# det0zvd_dial                        0
# mag                                 1.818
# mag_dial                            1.818
# om                                  0.2499
# om_dial                             -0.610199
# phi                                 -0.0120535
# phi_dial                            0
# ry                                  0.599993
# ry_dial                             0.599993
# s1bot                               0.8
# s1bot_dial                          -1.66094
# s1hl                                0.8
# s1hl_dial                           -0.608437
# s1hr                                0.8
# s1hr_dial                           0.970938
# s1top                               0.8
# s1top_dial                          -0.461562
# s2bot                               0.45
# s2bot_dial                          1.36109
# s2hl                                0.45
# s2hl_dial                           -0.83375
# s2hr                                0.45
# s2hr_dial                           -0.118594
# s2top                               0.45
# s2top_dial                          1.44734
# w2theta                             32
# w2theta_dial                        32
# waxsch                              19.2605
# waxsch_dial                         -32.7355
# waxsh                               137.085
# waxsh_dial                          -43.5338
# waxsth                              26.0607
# waxsth_dial                         -19.4086
# waxsz                               67.0407
# waxsz_dial                          -23.7954
# wind                                65.9854
# wind_dial                           66.0041
# wpsi                                124
# wpsi_dial                           124
# wstod                               115
# wstod_dial                          115
# x                                   0
# x_dial                              1.00969
# z                                   0
# z_dial                              13.3172
# CountCutoff                         15302352
# DetectorModel                       Dectris EIGER2 Si 1M, S/N E-02-0362
# ThresholdSetting                    4023.88989258
# Saturation                          0
# FlatField                           Corrected
# BackgroundReductionExtra            0.02
# BackgroundCorrectionConstant        0.0026712
# Detector                            0
# Monitor                             0
# Pil_Roi0                            0
# SumForIntensity1                    3.0659e+08
# TransmittedFlux                     851638
# det                                 0
# mon                                 0
# pilai0                              3.0659e+08
# pilai1                              777302
# pilct0                              5.30269e+08
# pilct1                              777302
# pilroi0                             0
# pilroi1                             0
# sec                                 1
# title                               20251028_20perc_iodine_1.23mg_0_00427.edf
# usaxs0                              0
# Operation                           Azimuthal average I(q)
# Error_model                         ErrorModel.poisson
# Geometrical_correction              True
# Transmission_correction             True
# Thickness_correction                False
# Binning mode                        Uniform
# Binning factor                      1.0
# Psi                                 0.0
# Omega                               0.2499
# MaskInvalidPixels                   True
# DetectorEdge                        3
# MaskFiles                           ['20251028_20perc_iodine_1.23mg_0_00012_mask.edf']
################################################################################
    q(A⁻¹)                Intensity(a.u.)            Sigma_I(a.u.)            
       0.000340                371809.567                120.635207           
       0.001019                358863.025                72.5761286           
       0.001698                349768.292                50.6646092           
       0.002377                 331090.76                44.0892847           
       0.003056                307960.491                35.9371041           
       0.003735                253487.977                28.7542546           
       0.004415                204706.035                25.8397827           
       0.005094                152758.403                19.3311123           
       0.005773                 100666.72                14.5286079           
       0.006452                 58533.643                10.6148311           
       0.007131                32265.2432                7.63459842           
       0.007810                16245.7963                5.37618407           
       0.008490                8167.70082                3.37898357           
       0.009169                3973.95814                2.32936998           
       0.009848                1225.51915                1.25066919           
       0.010527                475.544091               0.779072825           
       0.011206                118.470856               0.371126472           
       0.011885                54.3510774               0.233554542           
       0.012564                25.3135574               0.163641178           
       0.013244                16.8164456                0.12469329           
       0.013923                12.7392646                0.11028027           
       0.014602                9.41054456               0.087905884           
       0.015281                7.33387372              0.0789961918           
       0.015960                6.01384285              0.0710217563           
       0.016639                5.06129436              0.0615262987           
       0.017319                4.14110209              0.0547874058           
       0.017998                3.41554472              0.0476018816           
       0.018677                2.93990361               0.045741018           
       0.019356                2.51602025              0.0418114714           
       0.020035                2.13732196              0.0361548545           
       0.020714                1.84222358              0.0339214998           
       0.021394                1.57973871              0.0297212014           
       0.022073                1.42789076              0.0293988663           
       0.022752                1.25333573              0.0263481622           
       0.023431                1.10369228              0.0240003687           
       0.024110                1.04504244              0.0243482405           
       0.024789               0.925882026              0.0212842644           
       0.025469               0.822784019              0.0206764422           
       0.026148               0.747360797               0.018515395           
       0.026827               0.639421035              0.0174002763           
       0.027506               0.607019384              0.0171981603           
       0.028185               0.548183123              0.0155858271           
       0.028864               0.510965089              0.0149630093           
       0.029544               0.458038827              0.0137378966           
       0.030223               0.441309846              0.0136780522           
       0.030902                0.40851418              0.0132804333           
       0.031581               0.381958596              0.0122072783           
       0.032260               0.357069877              0.0120039704           
       0.032939               0.310877201              0.0107998554           
       0.033619               0.291560103              0.0106126493           
       0.034298               0.262967053             0.00980834241           
       0.034977               0.264635096             0.00964603619           
       0.035656               0.246734508             0.00956058919           
       0.036335               0.214062137             0.00863684766           
       0.037014               0.192961522             0.00822458902           
       0.037693               0.208435239             0.00822306163           
       0.038373               0.184455442             0.00781150729           
       0.039052               0.171321865             0.00756030596           
       0.039731               0.158882426             0.00711099034           
       0.040410               0.147857704             0.00681385035           
       0.041089               0.142385214             0.00658182456           
       0.041768               0.142323315             0.00661477311           
       0.042448               0.131111709             0.00629962362           
       0.043127                0.13358896             0.00620867523           
       0.043806                0.12295566             0.00600086845           
       0.044485                0.11636217             0.00571782649           
       0.045164               0.111580925             0.00570947715           
       0.045843               0.104301934             0.00529445263           
       0.046523               0.110436238               0.005466732           
       0.047202               0.101542817             0.00527862504           
       0.047881               0.102556294             0.00520260077           
       0.048560              0.0978349665             0.00512775126           
       0.049239              0.0886576771             0.00468695667           
       0.049918              0.0939825381             0.00491999236           
       0.050598              0.0897459171             0.00473568741           
       0.051277              0.0839001084             0.00456432593           
       0.051956              0.0867024547             0.00461078925           
       0.052635              0.0800717219             0.00433693909           
       0.053314              0.0820636831             0.00451891985           
       0.053993              0.0771750889             0.00426206276           
       0.054673              0.0688106906             0.00393482767           
       0.055352              0.0756593937             0.00418660456           
       0.056031              0.0671732393             0.00386194684           
       0.056710              0.0721792742             0.00410136534           
       0.057389              0.0683992621             0.00385003828           
       0.058068              0.0663173915             0.00383007249           
       0.058748               0.062121884             0.00375318107           
       0.059427              0.0652490929             0.00378136408           
       0.060106              0.0617981142             0.00371483883           
       0.060785              0.0589110019               0.003518351           
       0.061464              0.0600524334             0.00363789536           
       0.062143              0.0569676976             0.00350723621           
       0.062822              0.0603944837             0.00356880512           
       0.063502              0.0595015268             0.00353599498           
       0.064181              0.0512169319              0.0032459657           
       0.064860              0.0550759165             0.00341729835           
       0.065539               0.046824222              0.0031201084           
       0.066218              0.0425740921             0.00291143482           
       0.066897              0.0493312184             0.00315816652           
       0.067577               0.040646152             0.00289425149           
       0.068256              0.0483521314              0.0032342507           
       0.068935              0.0471645685             0.00314263621           
       0.069614              0.0450314237             0.00310131555           
       0.070293              0.0465613611             0.00318263821           
       0.070972              0.0384428999             0.00287072089           
       0.071652              0.0454447063             0.00312694622           
       0.072331              0.0394339917             0.00286090987           
       0.073010              0.0373726302             0.00284876855           
       0.073689              0.0442474827             0.00308270189           
       0.074368              0.0447871385             0.00309580318           
       0.075047              0.0423473888             0.00297794549           
       0.075727              0.0352056914             0.00269847973           
       0.076406              0.0340556522             0.00270699337           
       0.077085              0.0404595878             0.00289541049           
       0.077764              0.0380734357             0.00279889108           
       0.078443              0.0364964921             0.00275728157           
       0.079122               0.033531384             0.00261751398           
       0.079802              0.0407140943             0.00291485853           
       0.080481              0.0397638848             0.00278347411           
       0.081160              0.0355462513             0.00268572306           
       0.081839              0.0386921443             0.00275718932           
       0.082518              0.0376064211             0.00272051921           
       0.083197              0.0320992505              0.0024743849           
       0.083876              0.0339239547             0.00250147372           
       0.084556               0.038232913              0.0027294473           
       0.085235              0.0319083985             0.00244531978           
       0.085914              0.0332656174             0.00252103823           
       0.086593              0.0334047717             0.00251004618           
       0.087272              0.0350462024             0.00253463409           
       0.087951              0.0303341491             0.00241135862           
       0.088631              0.0325588117             0.00241312649           
       0.089310               0.030182759               0.002372685           
       0.089989              0.0314768096             0.00239468716           
       0.090668              0.0313083967             0.00241463456           
       0.091347               0.029950147             0.00237489954           
       0.092026               0.026971827              0.0021541967           
       0.092706               0.032525735             0.00245147817           
       0.093385              0.0266927441             0.00218670493           
       0.094064              0.0275450156             0.00224719346           
       0.094743              0.0318595871             0.00237996086           
       0.095422              0.0264131134              0.0021428387           
       0.096101              0.0241215769             0.00208995094           
       0.096781              0.0281469734             0.00222528562           
       0.097460              0.0274150135             0.00213625259           
       0.098139              0.0266106356             0.00208848508           
       0.098818              0.0287167072             0.00214283928           
       0.099497              0.0270489684             0.00208395526           
       0.100176              0.0309558685             0.00217087134           
       0.100856              0.0306092246             0.00215729914           
       0.101535              0.0247833912             0.00193743064           
       0.102214               0.030200642             0.00213873302           
       0.102893                0.02460561              0.0019084856           
       0.103572              0.0300749983             0.00207879175           
       0.104251              0.0216069617             0.00176850567           
       0.104931               0.021945693             0.00176608788           
       0.105610              0.0242525045             0.00186450941           
       0.106289              0.0261915219             0.00190536628           
       0.106968              0.0242834195               0.001840094           
       0.107647              0.0232182028             0.00180036254           
       0.108326               0.025827835             0.00187344316           
       0.109005              0.0235389505             0.00177725185           
       0.109685              0.0256876638             0.00183577196           
       0.110364              0.0260709116             0.00187042125           
       0.111043              0.0253021329             0.00183533147           
       0.111722              0.0231261745             0.00173319275           
       0.112401              0.0212907356             0.00166761704           
       0.113080              0.0211129609             0.00164161016           
       0.113760              0.0238120096             0.00177250498           
       0.114439              0.0251778362             0.00179661843           
       0.115118              0.0222605023             0.00167659062           
       0.115797              0.0253700407             0.00180644589           
       0.116476              0.0243645452             0.00174379035           
       0.117155              0.0248736108              0.0017761238           
       0.117835              0.0236457489             0.00169730431           
       0.118514               0.022887196             0.00169103065           
       0.119193              0.0234703349             0.00171245024           
       0.119872              0.0229186463             0.00167104103           
       0.120551              0.0229860831             0.00166235038           
       0.121230               0.022048514             0.00161171097           
       0.121910              0.0223552835             0.00163856915           
       0.122589              0.0227567645             0.00165492087           
       0.123268              0.0235823707             0.00165203559           
       0.123947              0.0209631136             0.00156766499           
       0.124626              0.0210623271             0.00155215742           
       0.125305              0.0211119373             0.00156161019           
       0.125985              0.0192076919             0.00147796156           
       0.126664              0.0197267231             0.00148353013           
       0.127343              0.0190515333             0.00147481976           
       0.128022              0.0229208787              0.0016052613           
       0.128701               0.021904411             0.00156108897           
       0.129380              0.0182108533             0.00140557276           
       0.130059              0.0225381742             0.00156731021           
       0.130739               0.021081492             0.00152647487           
       0.131418              0.0189864291             0.00144458471           
       0.132097              0.0167846578             0.00134082422           
       0.132776              0.0195038364              0.0014388333           
       0.133455              0.0180908373             0.00139649972           
       0.134134              0.0192716445             0.00143676474           
       0.134814              0.0180170673             0.00137489731           
       0.135493              0.0182632995             0.00138986255           
       0.136172               0.018611455             0.00139245584           
       0.136851              0.0195951413             0.00143708999           
       0.137530              0.0243518152             0.00156398567           
       0.138209               0.021255613             0.00147833569           
       0.138889              0.0200032754             0.00144044597           
       0.139568              0.0184044506             0.00138108404           
       0.140247              0.0195230111             0.00142056976           
       0.140926              0.0183924015             0.00133939803           
       0.141605              0.0198744261             0.00142768856           
       0.142284              0.0176037255             0.00132139185           
       0.142964              0.0187523481             0.00136903665           
       0.143643              0.0185155191              0.0013586457           
       0.144322              0.0179954292             0.00131140008           
       0.145001              0.0169781413                0.00129994           
       0.145680              0.0195895342             0.00136330196           
       0.146359              0.0200879594             0.00138558653           
       0.147039               0.018323583             0.00133423337           
       0.147718              0.0184554725             0.00131693094           
       0.148397              0.0192427993             0.00136562449           
       0.149076              0.0195876621             0.00133506538           
       0.149755              0.0181689177             0.00130566057           
       0.150434              0.0194977902             0.00135311802           
       0.151114              0.0200191647             0.00136350635           
       0.151793              0.0187889003             0.00132095765           
       0.152472              0.0181265982             0.00127454852           
       0.153151              0.0181277752             0.00128691246           
       0.153830              0.0181319736              0.0012776842           
       0.154509              0.0175965821             0.00125342786           
       0.155188              0.0192164127             0.00130936519           
       0.155868              0.0191982784             0.00129943406           
       0.156547              0.0164049188             0.00120890154           
       0.157226              0.0153559386             0.00114104545           
       0.157905              0.0195722167             0.00129902474           
       0.158584              0.0154012739             0.00115023353           
       0.159263              0.0170520162             0.00121476035           
       0.159943              0.0157874693             0.00116972233           
       0.160622              0.0177581909             0.00121664168           
       0.161301              0.0179789111               0.001240553           
       0.161980              0.0172000636             0.00119275675           
       0.162659              0.0191229511             0.00127160281           
       0.163338              0.0162982441             0.00116436775           
       0.164018              0.0158104338             0.00114079136           
       0.164697               0.017239428             0.00120652618           
       0.165376              0.0185648657               0.001224693           
       0.166055              0.0169921664             0.00117939827           
       0.166734              0.0159629742             0.00113800247           
       0.167413              0.0173785372             0.00118822004           
       0.168093              0.0167848783             0.00117879473           
       0.168772              0.0155312593             0.00110075863           
       0.169451              0.0177201139             0.00119740121           
       0.170130              0.0157581165             0.00111434412           
       0.170809              0.0172467028              0.0011797022           
       0.171488              0.0166242538              0.0011476599           
       0.172168              0.0175312381             0.00116722907           
       0.172847              0.0185049691             0.00121495927           
       0.173526              0.0183856928             0.00118793493           
       0.174205              0.0144800974             0.00105909265           
       0.174884              0.0179779089              0.0011739475           
       0.175563               0.016606297             0.00113309367           
       0.176243              0.0174914993             0.00117453947           
       0.176922              0.0156883256             0.00108336455           
       0.177601              0.0162603963             0.00111506107           
       0.178280              0.0168021241             0.00112083074           
       0.178959              0.0155471558             0.00108683249           
       0.179638              0.0160796395              0.0011021047           
       0.180317              0.0162761478             0.00110074092           
       0.180997              0.0153197634             0.00107370806           
       0.181676              0.0163241541             0.00109651177           
       0.182355               0.015481305             0.00107424236           
       0.183034              0.0162807216             0.00108394861           
       0.183713              0.0151339034             0.00105780214           
       0.184392              0.0146552881             0.00104062618           
       0.185072               0.015491499             0.00105770944           
       0.185751              0.0168913981             0.00110753885           
       0.186430              0.0171633222             0.00110859859           
       0.187109              0.0175458667             0.00113336803           
       0.187788              0.0183407014             0.00115589795           
       0.188467              0.0173120744             0.00110972644           
       0.189147              0.0165634305             0.00109645918           
       0.189826               0.017390433             0.00110363092           
       0.190505              0.0148709738             0.00103735939           
       0.191184              0.0166966448             0.00108335159           
       0.191863              0.0167609967             0.00108772397           
       0.192542              0.0159116406             0.00106979994           
       0.193222              0.0169132391              0.0010782393           
       0.193901              0.0151135925             0.00103292325           
       0.194580              0.0152770715             0.00102032877           
       0.195259              0.0156967723             0.00104612752           
       0.195938               0.015801154             0.00105210572           
       0.196617              0.0162922513             0.00105341785           
       0.197297              0.0173834409             0.00109256596           
       0.197976              0.0172542994             0.00107178027           
       0.198655              0.0159929208             0.00104313132           
       0.199334              0.0173888995             0.00107811289           
       0.200013              0.0159564303             0.00103217941           
       0.200692                0.01685317             0.00106716745           
       0.201371              0.0158000623             0.00102165042           
       0.202051              0.0160980164             0.00103444535           
       0.202730              0.0151289498             0.00099281029           
       0.203409              0.0159353066             0.00102576457           
       0.204088              0.0153550035             0.00100580041           
       0.204767               0.014156149            0.000960662412           
       0.205446              0.0126515648             0.00090995137           
       0.206126              0.0153495862            0.000988675019           
       0.206805              0.0179676857             0.00108928342           
       0.207484              0.0164350665             0.00102306203           
       0.208163              0.0154146127            0.000996745872           
       0.208842              0.0152545783            0.000988871323           
       0.209521              0.0152465337            0.000980394557           
       0.210201              0.0153437038            0.000994488993           
       0.210880               0.015418367            0.000977343356           
       0.211559              0.0174302813             0.00105451858           
       0.212238              0.0163423561              0.0010158833           
       0.212917              0.0129723524            0.000901735695           
       0.213596              0.0152084491            0.000982138469           
       0.214276              0.0154341254            0.000968785894           
       0.214955              0.0150126514            0.000975559358           
       0.215634              0.0131659996            0.000907043571           
       0.216313              0.0142329508             0.00094110004           
       0.216992              0.0155972946             0.00098492731           
       0.217671              0.0151996016             0.00096570375           
       0.218351              0.0153148792            0.000978839374           
       0.219030              0.0133261965            0.000898665045           
       0.219709              0.0159333776            0.000988779094           
       0.220388              0.0161484678            0.000994151856           
       0.221067               0.014502555            0.000942873661           
       0.221746              0.0144706784            0.000940872116           
       0.222426              0.0149226193            0.000941172459           
       0.223105              0.0154193708            0.000969743046           
       0.223784              0.0152937984            0.000956206471           
       0.224463              0.0145504193            0.000940105567           
       0.225142              0.0147818807             0.00093256079           
       0.225821              0.0149820359            0.000942635001           
       0.226500              0.0149825056             0.00094864348           
       0.227180              0.0151074791            0.000937915839           
       0.227859              0.0158273042            0.000964306959           
       0.228538              0.0155037238            0.000944815125           
       0.229217              0.0137710795            0.000897505144           
       0.229896              0.0149303653            0.000934069173           
       0.230575              0.0143213909            0.000900238747           
       0.231255              0.0147335725             0.00092677239           
       0.231934              0.0138288837            0.000891734053           
       0.232613              0.0156049706            0.000950763738           
       0.233292              0.0161932493             0.00095916129           
       0.233971              0.0138679592            0.000887213613           
       0.234650              0.0138472758            0.000896979728           
       0.235330               0.013838297            0.000888858694           
       0.236009              0.0154795245            0.000938065297           
       0.236688              0.0139054979            0.000885911886           
       0.237367              0.0137144693            0.000881083521           
       0.238046              0.0156786888            0.000948702921           
       0.238725              0.0151280231            0.000917516781           
       0.239405              0.0139821629            0.000887554109           
       0.240084               0.014143005            0.000886960435           
       0.240763              0.0129311837            0.000856231605           
       0.241442              0.0143821335            0.000890268159           
       0.242121              0.0145651448            0.000897605674           
       0.242800              0.0137359071            0.000875806258           
       0.243480              0.0140033898             0.00088015203           
       0.244159              0.0132984107            0.000858126013           
       0.244838              0.0138196426            0.000860387299           
       0.245517               0.013495613            0.000862471064           
       0.246196              0.0157231701            0.000931381576           
       0.246875              0.0149327019            0.000895014795           
       0.247554              0.0140330116             0.00087645175           
       0.248234              0.0136899106            0.000852544738           
       0.248913              0.0131877127            0.000846147396           
       0.249592               0.013558647             0.00084981206           
       0.250271              0.0130669611            0.000831838681           
       0.250950              0.0144666138            0.000880617129           
       0.251629              0.0130083266            0.000827956241           
       0.252309              0.0136922841            0.000851167742           
       0.252988              0.0135342662             0.00083166508           
       0.253667              0.0138873647            0.000852286966           
       0.254346              0.0123328232            0.000803004164           
       0.255025                0.01377483            0.000846793048           
       0.255704              0.0144774992            0.000864146269           
       0.256384              0.0131537308            0.000820842619           
       0.257063                0.01484483            0.000876984897           
       0.257742              0.0120866973            0.000785848266           
       0.258421              0.0131030112            0.000816645684           
       0.259100              0.0127859148            0.000808110408           
       0.259779              0.0134965532            0.000829560236           
       0.260459              0.0116072613            0.000770820748           
       0.261138              0.0131927855            0.000805722717           
       0.261817              0.0120072394            0.000784184467           
       0.262496               0.013734882            0.000830479496           
       0.263175              0.0133830908            0.000821535754           
       0.263854              0.0108668703            0.000736848322           
       0.264534              0.0129797643            0.000798424977           
       0.265213              0.0118414705            0.000774629687           
       0.265892               0.012272361            0.000778494144           
       0.266571              0.0120077234             0.00076830362           
       0.267250              0.0126502571            0.000789920171           
       0.267929              0.0129138087            0.000797287868           
       0.268609              0.0126228298            0.000792570221           
       0.269288              0.0118878136            0.000756371555           
       0.269967              0.0129397715            0.000797630366           
       0.270646              0.0115560085            0.000750517568           
       0.271325              0.0131189563            0.000800997798           
       0.272004              0.0136146694            0.000807856651           
       0.272683               0.011407898            0.000740405876           
       0.273363              0.0118451971            0.000759275295           
       0.274042              0.0135308957            0.000806717524           
       0.274721              0.0117214015            0.000750395859           
       0.275400               0.013927979            0.000812567919           
       0.276079              0.0100166842            0.000693005464           
       0.276758              0.0112652854            0.000744204168           
       0.277438              0.0128884835            0.000787080781           
       0.278117              0.0122319973            0.000780716234           
       0.278796              0.0111953062            0.000739318803           
       0.279475              0.0107563851            0.000736652442           
       0.280154              0.0104945736             0.00071716565           
       0.280833              0.0108152107              0.0007324663           
       0.281513              0.0113384574            0.000761741727           
       0.282192              0.0118126154            0.000764241566           
       0.282871              0.0111844684            0.000748840803           
       0.283550              0.0109633536            0.000745374771           
       0.284229              0.0107715192            0.000749676196           
       0.284908              0.0116925614            0.000789308708           
       0.285588              0.0104909605            0.000738897264           
       0.286267              0.0103437411            0.000745442213           
       0.286946              0.0100475462            0.000729914013           
       0.287625              0.0107995133            0.000769619646           
       0.288304             0.00974450926            0.000721276762           
       0.288983              0.0103885065            0.000754160409           
       0.289663             0.00964068992            0.000730761533           
       0.290342              0.0100868974            0.000743502502           
       0.291021              0.0107417628            0.000771391566           
       0.291700              0.0106182267            0.000756924006           
       0.292379             0.00932937499             0.00072574501           
       0.293058             0.00901976054            0.000710905235           
       0.293738             0.00882178781            0.000697156308           
       0.294417              0.0103806361            0.000765037328           
       0.295096             0.00964579971            0.000729355047           
       0.295775             0.00928476967            0.000726503694           
       0.296454             0.00993419509            0.000741762049           
       0.297133              0.0113951783            0.000798194315           
       0.297812              0.0098312611            0.000745118661           
       0.298492              0.0118041669            0.000818044226           
       0.299171             0.00979445226             0.00074374964           
       0.299850             0.00876426187            0.000698744773           
       0.300529             0.00974921178            0.000745264444           
       0.301208             0.00872363921            0.000706691738           
       0.301887             0.00932375737            0.000729726737           
       0.302567             0.00883493081            0.000706782501           
       0.303246             0.00945914532            0.000736099241           
       0.303925             0.00930696439            0.000739528967           
       0.304604             0.00984923788             0.00074434125           
       0.305283              0.0090559636            0.000724322391           
       0.305962              0.0099071595            0.000753021817           
       0.306642              0.0092017122            0.000735573307           
       0.307321             0.00935780628            0.000739417384           
       0.308000             0.00851417436            0.000696939934           
       0.308679             0.00794266094            0.000687719933           
       0.309358             0.00934573854            0.000735902995           
       0.310037             0.00956591302            0.000746179868           
       0.310717             0.00928021768            0.000734245602           
       0.311396             0.00833106384            0.000700350493           
       0.312075             0.00776133112            0.000684551369           
       0.312754             0.00888693217            0.000717856257           
       0.313433             0.00840865572            0.000704345273           
       0.314112             0.00834209023            0.000701390791           
       0.314792             0.00803173007            0.000693079828           
       0.315471             0.00960185221            0.000748431367           
       0.316150             0.00980202289            0.000763190919           
       0.316829             0.00942971284            0.000753499617           
       0.317508             0.00851132969            0.000707834375           
       0.318187             0.00752436654            0.000674309859           
       0.318866             0.00889368534            0.000723228007           
       0.319546             0.00801558667            0.000696889072           
       0.320225              0.0070749638            0.000654736569           
       0.320904             0.00841272996             0.00070291921           
       0.321583             0.00788374678            0.000695454803           
       0.322262             0.00789386692            0.000685353987           
       0.322941             0.00736624113             0.00067053538           
       0.323621             0.00896659726            0.000735282192           
       0.324300              0.0081791326            0.000702803793           
       0.324979             0.00731235756            0.000665723099           
       0.325658             0.00662027529             0.00063458545           
       0.326337             0.00692974332            0.000650095501           
       0.327016              0.0080417906            0.000695871422           
       0.327696              0.0076910126             0.00068809411           
       0.328375             0.00711098425            0.000656055605           
       0.329054             0.00817580105            0.000707277875           
       0.329733             0.00768711445            0.000688318953           
       0.330412             0.00852116351             0.00071876088           
       0.331091             0.00634908771            0.000631681147           
       0.331771             0.00843294749            0.000708924945           
       0.332450              0.0088232597            0.000739224241           
       0.333129             0.00681153537            0.000647831529           
       0.333808             0.00719798852              0.0006668356           
       0.334487             0.00728546799            0.000674056331           
       0.335166             0.00826300999            0.000707348777           
       0.335846             0.00631539655            0.000629260455           
       0.336525             0.00698427386             0.00065521169           
       0.337204             0.00659515764            0.000638367355           
       0.337883             0.00696640901            0.000656958384           
       0.338562              0.0062490184            0.000625666146           
       0.339241             0.00739498933            0.000681896668           
       0.339921             0.00696438378            0.000650648307           
       0.340600             0.00662237975            0.000646520232           
       0.341279             0.00658252146            0.000637669405           
       0.341958             0.00823536979            0.000723311413           
       0.342637             0.00615646552            0.000616552968           
       0.343316             0.00706282779            0.000662292053           
       0.343995             0.00749516579            0.000693432944           
       0.344675             0.00770611406            0.000690201612           
       0.345354             0.00631147468            0.000628751415           
       0.346033             0.00678361545            0.000650145522           
       0.346712             0.00655646386            0.000643246079           
       0.347391             0.00721805174            0.000679098978           
       0.348070             0.00637299838            0.000629047082           
       0.348750             0.00606408238            0.000622478307           
       0.349429             0.00559516107            0.000590207612           
       0.350108             0.00739340153            0.000686618541           
       0.350787             0.00584417841            0.000600086083           
       0.351466             0.00734008223             0.00068490402           
       0.352145             0.00639406888              0.0006397763           
       0.352825              0.0050033618             0.00056337663           
       0.353504             0.00632052443            0.000633049851           
       0.354183             0.00697925209            0.000657556684           
       0.354862             0.00608916742            0.000628469331           
       0.355541             0.00490922887            0.000556911867           
       0.356220             0.00798599129            0.000711645672           
       0.356900              0.0052447983            0.000582196296           
       0.357579             0.00485469918            0.000553258393           
       0.358258             0.00577409656            0.000611727007           
       0.358937             0.00633426945            0.000628667884           
       0.359616              0.0067697921            0.000658996848           
       0.360295             0.00636249055             0.00063939744           
       0.360975             0.00470103418            0.000547258689           
       0.361654             0.00484340438            0.000558347504           
       0.362333             0.00533942983            0.000583260729           
       0.363012             0.00516531553            0.000581053136           
       0.363691             0.00683974503             0.00065544083           
       0.364370             0.00546555364            0.000593178133           
       0.365050             0.00445018397              0.0005323863           
       0.365729             0.00558690455            0.000602205758           
       0.366408             0.00488500913            0.000564355184           
       0.367087             0.00604310872             0.00061762948           
       0.367766              0.0065179485            0.000654800797           
       0.368445             0.00526286641            0.000577942891           
       0.369124             0.00625208478            0.000634869614           
       0.369804             0.00546304254            0.000592507606           
       0.370483             0.00530683268            0.000586530234           
       0.371162              0.0043945971            0.000536837536           
       0.371841             0.00568892872            0.000600149765           
       0.372520             0.00486925335            0.000566362838           
       0.373199             0.00475699098            0.000553107832           
       0.373879             0.00435031014            0.000535060717           
       0.374558             0.00637333977            0.000638178879           
       0.375237             0.00531103201            0.000583525306           
       0.375916             0.00499389322            0.000576674976           
       0.376595             0.00390266224            0.000499827142           
       0.377274             0.00389129287            0.000507087605           
       0.377954             0.00485996624            0.000557796992           
       0.378633             0.00511944137            0.000579728608           
       0.379312             0.00524771688            0.000586798494           
       0.379991             0.00416511967             0.00052007248           
       0.380670             0.00446370603            0.000547907086           
       0.381349              0.0047721797             0.00055838864           
       0.382029             0.00465913897            0.000559641017           
       0.382708             0.00391792981            0.000501991196           
       0.383387             0.00445149625            0.000547208736           
       0.384066             0.00449347838             0.00054473856           
       0.384745             0.00471870695             0.00056041815           
       0.385424             0.00448629117            0.000548298383           
       0.386104             0.00427648864            0.000529408355           
       0.386783             0.00411887369            0.000530798825           
       0.387462             0.00481352158            0.000559540623           
       0.388141             0.00376673497            0.000502879924           
       0.388820             0.00548882295            0.000602657542           
       0.389499             0.00342961044            0.000479061636           
       0.390178             0.00338540152            0.000477859373           
       0.390858             0.00478819287            0.000563705619           
       0.391537             0.00347284168             0.00048497713           
       0.392216             0.00390590641            0.000507880751           
       0.392895             0.00327396698            0.000466550452           
       0.393574             0.00384804733            0.000504549547           
       0.394253             0.00354231799            0.000486269222           
       0.394933             0.00398925909            0.000521931821           
       0.395612             0.00393552651             0.00050334654           
       0.396291             0.00396811571            0.000515716108           
       0.396970             0.00488146922             0.00056692923           
       0.397649             0.00371695339            0.000496229072           
       0.398328             0.00414614079             0.00052179211           
       0.399008             0.00542604203            0.000595624002           
       0.399687             0.00429007333            0.000531677954           
       0.400366             0.00405866251            0.000515161611           
       0.401045             0.00450147488            0.000541511316           
       0.401724             0.00432100142            0.000531430704           
       0.402403             0.00464057582            0.000555024525           
       0.403083             0.00406805826             0.00051216732           
       0.403762             0.00450121097            0.000541401281           
       0.404441             0.00356415045            0.000484830432           
       0.405120             0.00386932193            0.000503503841           
       0.405799             0.00396341891            0.000507375538           
       0.406478              0.0027233422            0.000420587685           
       0.407158             0.00380685872            0.000496332814           
       0.407837             0.00393916036            0.000509340099           
       0.408516             0.00308919517            0.000447130268           
       0.409195             0.00389800267            0.000507962138           
       0.409874             0.00307046515             0.00045710203           
       0.410553             0.00306854108            0.000461873408           
       0.411233              0.0039226181            0.000519503916           
       0.411912             0.00348445047            0.000496567565           
       0.412591             0.00431397418            0.000556179256           
       0.413270             0.00301583935            0.000462819829           
       0.413949              0.0037306706            0.000520378057           
       0.414628             0.00278958772            0.000449174488           
       0.415307              0.0033104262            0.000494756193           
       0.415987             0.00352053516            0.000506011017           
       0.416666             0.00283984335            0.000451733158           
       0.417345              0.0029382244            0.000467164423           
       0.418024             0.00324481448            0.000490945495           
       0.418703             0.00389844088             0.00053713721           
       0.419382             0.00311507167            0.000477793618           
       0.420062              0.0033603738            0.000497639922           
       0.420741             0.00339812587            0.000503088772           
       0.421420             0.00312972932            0.000484643319           
       0.422099             0.00335948625            0.000502130454           
       0.422778             0.00263658416            0.000447245976           
       0.423457             0.00328293868             0.00050211953           
       0.424137             0.00301228425            0.000473138016           
       0.424816             0.00347238967            0.000518605348           
       0.425495             0.00300162088            0.000481714411           
       0.426174             0.00300103466            0.000481836024           
       0.426853             0.00280373882             0.00046289925           
       0.427532             0.00409921522            0.000564448677           
       0.428212             0.00313729253            0.000497060271           
       0.428891              0.0025032315            0.000442989186           
       0.429570             0.00258495013            0.000450469659           
       0.430249             0.00177541821            0.000371389041           
       0.430928             0.00266525792            0.000464989237           
       0.431607             0.00187361534             0.00038316553           
       0.432287             0.00277583684            0.000469799292           
       0.432966             0.00128804227            0.000322837376           
       0.433645             0.00275487426            0.000472631793           
       0.434324             0.00167548656            0.000366367296           
       0.435003             0.00256877858            0.000454412936           
       0.435682             0.00229179947            0.000432736019           
       0.436361            0.000907967322            0.000272012096           
       0.437041             0.00347775226             0.00053164589           
       0.437720             0.00246358476            0.000449621046           
       0.438399             0.00281132323            0.000482812663           
       0.439078             0.00220165614            0.000439655563           
       0.439757             0.00157737776            0.000369846878           
       0.440436             0.00221068708            0.000447709789           
       0.441116             0.00330905437            0.000556710025           
       0.441795             0.00230019771            0.000464710618           
       0.442474             0.00307874201            0.000539133076           
       0.443153              0.0029442588            0.000539526601           
       0.443832             0.00225741712            0.000473219029           
       0.444511             0.00163923816             0.00040143575           
       0.445191             0.00194761265            0.000448211838           
       0.445870             0.00164911323            0.000412447929           
       0.446549             0.00178016575            0.000433041786           
       0.447228             0.00225841011            0.000484998061           
       0.447907             0.00138002759            0.000383674304           
       0.448586             0.00179926558             0.00044863414           
       0.449266             0.00207883509            0.000477794865           
       0.449945             0.00186019876            0.000450128071           
       0.450624             0.00348797385            0.000626160407           
       0.451303             0.00210282331            0.000492485968           
       0.451982             0.00228975402            0.000510732842           
       0.452661             0.00156530773            0.000430145846           
       0.453341             0.00276943385            0.000574156999           
       0.454020             0.00467011991            0.000746724667           
       0.454699             0.00271729743            0.000574795796           
       0.455378             0.00320402669            0.000624490819           
       0.456057             0.00219772547            0.000526405667           
       0.456736             0.00166755765            0.000457107001           
       0.457416             0.00140616173            0.000419766148           
       0.458095             0.00174793972            0.000474780724           
       0.458774             0.00139626258            0.000429947403           
       0.459453             0.00127330271            0.000412650587           
       0.460132             0.00158317255             0.00045019322           
       0.460811             0.00201471747            0.000526805492           
       0.461490             0.00116330304            0.000396232468           
       0.462170             0.00148641483            0.000454881886           
       0.462849             0.00207099845             0.00054041353           
       0.463528             0.00163803667            0.000479501381           
       0.464207             0.00156069002            0.000476801292           
       0.464886             0.00124902727            0.000423223841           
       0.465565             0.00113364546            0.000407631331           
       0.466245             0.00144746805            0.000462039388           
       0.466924             0.00106759869            0.000406179567           
       0.467603            0.000857881011              0.0003563828           
       0.468282             0.00107324609            0.000408066678           
       0.468961             0.00170509383            0.000517725184           
       0.469640             0.00110068295             0.00041762392           
       0.470320              0.0015842544            0.000501379734           
       0.470999            0.000483957921            0.000279727495           
       0.471678             0.00050065901            0.000287247928           
       0.472357             0.00150328652            0.000499134403           
       0.473036            0.000518757158            0.000295060702           
       0.473715            0.000359219943            0.000247453579           
       0.474395            0.000897701357            0.000396589918           
       0.475074             0.00159233542            0.000528208829           
       0.475753              0.0010380108            0.000422790907           
       0.476432             0.00133908035            0.000497688865           
       0.477111             0.00111088084            0.000447821017           
       0.477790             0.00112706762            0.000453481912           
       0.478470            0.000603836831            0.000336318214           
       0.479149             5.6121949e-05            0.000103591926           
       0.479828            0.000429894747             0.00028603359           
       0.480507             5.1157459e-05            9.94667214e-05           
       0.481186            0.000483398911            0.000312649296           
       0.481865             0.00084504673            0.000408256795           
       0.482545             0.00149574884            0.000549533305           
       0.483224            0.000901225738            0.000429476026           
       0.483903            0.000923714583            0.000441650369           
       0.484582            0.000110191729            0.000155020746           
       0.485261              0.0010902994            0.000475273143           
       0.485940            0.000123664934            0.000166521077           
       0.486619            0.000966911039            0.000460506059           
       0.487299            0.000557925127            0.000355384817           
       0.487978            0.000741112059            0.000405420211           
       0.488657              0.0003929852            0.000307406439           
       0.489336           -0.000320540396                         0           
       0.490015            0.000132203225            0.000176548325           
       0.490694            0.000396010712            0.000314010792           
       0.491374           -0.000320598768                         0           
       0.492053           -6.70274033e-05                         0           
       0.492732           -6.59694318e-05                         0           
       0.493411             0.00121993246            0.000558790281           
       0.494090            0.000195342112            0.000225298194           
       0.494769           -4.96720959e-05                         0           
       0.495449           -5.97419633e-05                         0           
       0.496128            -0.00032073586                         0           
       0.496807           -3.86367732e-05                         0           
       0.497486           -0.000320775049                         0           
       0.498165           -3.26267774e-05                         0           
       0.498844           -0.000320814683                         0           
       0.499524           -0.000320834443                         0           
       0.500203           -0.000320854515                         0           
       0.500882              0.0011658466            0.000593189362           
       0.501561           -0.000320893933                         0           
       0.502240           -4.58366262e-05                         0           
       0.502919            -0.00032093385                         0           
       0.503599            -1.9045025e-05                         0           
       0.504278           -1.34208813e-05                         0           
       0.504957           -0.000320994156                         0           
       0.505636            4.85867885e-06             3.9833091e-05           
       0.506315           -0.000321034301                         0           
       0.506994           -0.000321054176                         0           
       0.507673            -0.00032107401                         0           
       0.508353            0.000345757382            0.000339308854           
       0.509032           -0.000321114428                         0           
       0.509711           -0.000321134602                         0           
       0.510390           -0.000321155093                         0           
       0.511069           -0.000321175516                         0           
       0.511748           -0.000321195857                         0           
       0.512428           -0.000321216343                         0           
       0.513107           -0.000321236514                         0           
       0.513786           -0.000321256748                         0           
       0.514465           -0.000321277327                         0           
       0.515144           -0.000321297892                         0           
       0.515823           -0.000321318269                         0           
       0.516503           -0.000321338838                         0           
       0.517182           -0.000321359405                         0           
       0.517861            0.000112518725            0.000219490336           
       0.518540            0.000138693976            0.000250001877           
       0.519219           -0.000321421068                         0           
       0.519898           -0.000321441788                         0           
       0.520578           -0.000321462633                         0           
       0.521257            -0.00032148321                         0           
       0.521936           -0.000321503835                         0           
       0.522615           -0.000321524707                         0           
       0.523294           -0.000321545657                         0           
       0.523973           -0.000321566317                         0           
       0.524653           -0.000321586828                         0           
       0.525332           -0.000321607638                         0           
       0.526011           -0.000321628822                         0           
       0.526690           -0.000321649966                         0           
       0.527369           -0.000321670935                         0           
       0.528048           -0.000321692054                         0           
       0.528728           -0.000321713147                         0           
       0.529407           -0.000321734143                         0           
       0.530086           -0.000321755031                         0           
       0.530765           -0.000321775948                         0           
       0.531444            0.000195748013            0.000319507118           
       0.532123           -0.000321818608                         0           
       0.532802            -0.00032183995                         0           
       0.533482           -0.000321861218                         0           
       0.534161            0.000256767012            0.000382933951           
       0.534840           -0.000321903641                         0           
       0.535519           -0.000321925152                         0           
       0.536198            0.000789949883             0.00068484195           
       0.536877           -0.000321967436                         0           
       0.537557           -0.000321988793                         0           
       0.538236           -0.000322010341                         0           
       0.538915           -0.000322031882                         0           
       0.539594           -0.000322053394                         0           
       0.540273           -0.000322075243                         0           
       0.540952           -0.000322096847                         0           
       0.541632           -0.000322118057                         0           
       0.542311           -0.000322139462                         0           
       0.542990           -0.000322161106                         0           
       0.543669           -0.000322182931                         0           
       0.544348            -0.00032220473                         0           
       0.545027            0.000349565235            0.000485361146           
       0.545707           -0.000322248301                         0           
       0.546386            -0.00032227018                         0           
       0.547065           -0.000322291796                         0           
       0.547744           -0.000322313511                         0           
       0.548423           -0.000322335465                         0           
       0.549102           -0.000322357442                         0           
       0.549782           -0.000322379307                         0           
       0.550461            0.000493350689            0.000638626173           
       0.551140           -0.000322423691                         0           
       0.551819           -0.000322445686                         0           
       0.552498            -0.00032246787                         0           
       0.553177           -0.000322489672                         0           
       0.553856           -0.000322511553                         0           
       0.554536            0.000507712892            0.000647987871           
       0.555215           -0.000322555793                         0           
       0.555894           -0.000322578028                         0           
       0.556573           -0.000322600396                         0           
       0.557252           -0.000322622744                         0           
       0.557931            0.000584934241            0.000751809432           
       0.558611           -0.000322667759                         0           
       0.559290           -0.000322689947                         0           
       0.559969           -0.000322711589                         0           
       0.560648           -0.000322733806                         0           
       0.561327           -0.000322756517                         0           
       0.562006           -0.000322779123                         0           
       0.562686           -0.000322801742                         0           
       0.563365           -0.000322824444                         0           
       0.564044           -0.000322847032                         0           
       0.564723            -0.00032286957                         0           
       0.565402           -0.000322891687                         0           
       0.566081           -0.000322913952                         0           
       0.566761           -0.000322936456                         0           
       0.567440           -0.000322959418                         0           
       0.568119           -0.000322982199                         0           
       0.568798           -0.000323005299                         0           
       0.569477           -0.000323028252                         0           
       0.570156           -0.000323051315                         0           
       0.570836           -0.000323074292                         0           
       0.571515           -0.000323096783                         0           
       0.572194           -0.000323119926                         0           
       0.572873            -0.00032314254                         0           
       0.573552            -0.00032316502                         0           
       0.574231           -0.000323187957                         0           
       0.574911           -0.000323211471                         0           
       0.575590           -0.000323234534                         0           
       0.576269           -0.000323257525                         0           
       0.576948           -0.000323280958                         0           
       0.577627           -0.000323303677                         0           
       0.578306           -0.000323326716                         0           
       0.578985           -0.000323349952                         0           
       0.579665           -0.000323373054                         0           
       0.580344           -0.000323396506                         0           
       0.581023           -0.000323419932                         0           
       0.581702           -0.000323443142                         0           
       0.582381           -0.000323466141                         0           
       0.583060           -0.000323489826                         0           
       0.583740           -0.000323513139                         0           
       0.584419            -0.00032353653                         0           
       0.585098           -0.000323559892                         0           
       0.585777           -0.000323583437                         0           
       0.586456           -0.000323607364                         0           
       0.587135           -0.000323630656                         0           
       0.587815           -0.000323653696                         0           
       0.588494           -0.000323677454                         0           
       0.589173           -0.000323701757                         0           
       0.589852           -0.000323724769                         0           
       0.590531           -0.000323748649                         0           
       0.591210           -0.000323771977                         0           
       0.591890           -0.000323795756                         0           
       0.592569            -0.00032381874                         0           
       0.593248           -0.000323843868                         0           
       0.593927           -0.000323867759                         0           
       0.594606           -0.000323892141                         0           
       0.595285           -0.000323915071                         0           
       0.595965           -0.000323936468                         0           
       0.596644           -0.000323958486                         0           
