################################################################################
# EDF_DataBlockID                     0.Image.Psd
# EDF_BinarySize                      2105344
# EDF_HeaderSize                      2560
# ByteOrder                           LowByteFirst
# DataType                            FloatValue
# Dim_1                               512
# Dim_2                               1028
# Image                               0
# HeaderID                            EH:000000:000000:000000
# Size                                2105344
# Center_1                            304.9000
# Center_2                            588.7000
# Comment                             Xenocs_Cell_Window - 20251028_20perc_iodine_1.23mg
# DDummy                              0.6
# Date                                2025-11-01T11:06:40
# Delta                               21.910000
# Dummy                               -1.5
# ExposureTime                        360
# Gamma                               15.360000
# Intensity1                          8.6479e-10
# PSize_1                             7.5e-05
# PSize_2                             7.5e-05
# Pressure                            0.0325775
# SampleDistance                      0.115750
# SampleEnvKind                       large
# SampleEnvPN                         ElectroChemical cell
# SampleEnvSN                         1141
# Thickness                           0
# Wavelength                          1.541891e-10
# Wavelength                          1.54189e-10
# aux                                 0
# aux_dial                            0.002375
# beamx                               588.434
# beamx_dial                          588.434
# beamz                               657.808
# beamz_dial                          657.808
# det0x                               0
# det0x_dial                          6.36945
# det0xvd                             0
# det0xvd_dial                        0
# det0y                               450.002
# det0y_dial                          481.635
# det0z                               0
# det0z_dial                          1.23302
# det0zvd                             0
# det0zvd_dial                        0
# mag                                 1.818
# mag_dial                            1.818
# om                                  0.2499
# om_dial                             -0.610199
# phi                                 -0.0120535
# phi_dial                            0
# ry                                  0.599993
# ry_dial                             0.599993
# s1bot                               0.8
# s1bot_dial                          -1.66094
# s1hl                                0.8
# s1hl_dial                           -0.608437
# s1hr                                0.8
# s1hr_dial                           0.970938
# s1top                               0.8
# s1top_dial                          -0.461562
# s2bot                               0.45
# s2bot_dial                          1.36109
# s2hl                                0.45
# s2hl_dial                           -0.83375
# s2hr                                0.45
# s2hr_dial                           -0.118594
# s2top                               0.45
# s2top_dial                          1.44734
# w2theta                             32
# w2theta_dial                        32
# waxsch                              19.2605
# waxsch_dial                         -32.7355
# waxsh                               137.085
# waxsh_dial                          -43.5338
# waxsth                              26.0607
# waxsth_dial                         -19.4086
# waxsz                               67.0407
# waxsz_dial                          -23.7954
# wind                                65.9854
# wind_dial                           66.0041
# wpsi                                124
# wpsi_dial                           124
# wstod                               115
# wstod_dial                          115
# x                                   0
# x_dial                              1.00969
# z                                   0
# z_dial                              13.3172
# CountCutoff                         6807993
# DetectorModel                       Dectris EIGER2 Si 500K, S/N E-01-0554
# ThresholdSetting                    4023.88989258
# Saturation                          0
# FlatField                           Corrected
# BackgroundReductionExtra            0.02
# BackgroundCorrectionConstant        0.0026712
# Detector                            0
# Monitor                             0
# Pil_Roi0                            0
# SumForIntensity1                    3.11324e+08
# TransmittedFlux                     864790
# det                                 0
# mon                                 0
# pilai0                              3.11324e+08
# pilai1                              785607
# pilct0                              5.38001e+08
# pilct1                              785607
# pilroi0                             0
# pilroi1                             0
# sec                                 1
# title                               20251028_20perc_iodine_1.23mg_1_00843.edf
# usaxs0                              0
# Operation                           Azimuthal average I(q)
# Error_model                         ErrorModel.poisson
# Geometrical_correction              True
# Transmission_correction             True
# Thickness_correction                False
# Binning mode                        Uniform
# Binning factor                      1.0
# Psi                                 0.0
# Omega                               0.2499
# MaskInvalidPixels                   True
# DetectorEdge                        3
# MaskFiles                           ['WAXS_corrected.edf']
################################################################################
    q(A⁻¹)                Intensity(a.u.)            Sigma_I(a.u.)            
       0.693100           -2.34776105e-05                         0           
       0.695741              0.0110781732             0.00569377806           
       0.698381           -2.34582195e-05                         0           
       0.701021             0.00871640441             0.00874581297           
       0.703662               0.011206604             0.00572411006           
       0.706302              0.0118924271             0.00456523739           
       0.708942             0.00847600826             0.00497444757           
       0.711583             0.00435956015              0.0030892731           
       0.714223              0.0115438047               0.005803759           
       0.716864             0.00247829531             0.00175947134           
       0.719504              0.0072907377             0.00325656133           
       0.722144              0.0062478652             0.00279181199           
       0.724785             0.00552584869             0.00209435955           
       0.727425             0.00287793711              0.0020447134           
       0.730065             0.00869931936             0.00251463901           
       0.732706             0.00711621835             0.00190988135           
       0.735346             0.00340900376              0.0017231362           
       0.737987             0.00603215429             0.00161971707           
       0.740627              0.0048352004             0.00216369808           
       0.743267             0.00863816665             0.00193705687           
       0.745908             0.00719813233             0.00191844883           
       0.748548             0.00861627713             0.00193470417           
       0.751189             0.00472689858             0.00193089834           
       0.753829              0.0106720772             0.00266698671           
       0.756469             0.00646026449             0.00167322702           
       0.759110             0.00865651699             0.00204113556           
       0.761750             0.00671470452             0.00158955066           
       0.764390             0.00490386704             0.00142179089           
       0.767031             0.00922454392              0.0016886436           
       0.769671             0.00723699602             0.00186577536           
       0.772312             0.00585879232             0.00127801393           
       0.774952             0.00659825866             0.00183149577           
       0.777592             0.00698905499             0.00137295933           
       0.780233             0.00665516489             0.00161641036           
       0.782873             0.00932092094             0.00182954989           
       0.785513             0.00738457652             0.00174093044           
       0.788154             0.00426959205             0.00110737746           
       0.790794             0.00861834944             0.00188093408           
       0.793435              0.0096094095             0.00178426803           
       0.796075              0.0061405848             0.00137398747           
       0.798715              0.0103134602             0.00210422827           
       0.801356             0.00533579884             0.00130264564           
       0.803996             0.00959429266             0.00178084353           
       0.806637             0.00520185275             0.00104354343           
       0.809277             0.00440144395             0.00103898774           
       0.811917             0.00577174585             0.00111225427           
       0.814558             0.00483949756             0.00105852344           
       0.817198             0.00624709256             0.00114257403           
       0.819838             0.00703123803             0.00122679923           
       0.822479              0.0094801674             0.00167276408           
       0.825119             0.00702427025             0.00122552174           
       0.827760             0.00505998111             0.00105362896           
       0.830400             0.00866065522             0.00129736994           
       0.833040               0.007238908              0.0012426781           
       0.835681             0.00522604304             0.00120033839           
       0.838321             0.00935042339             0.00134761725           
       0.840961             0.00689926023             0.00126124128           
       0.843602             0.00675247897             0.00114424023           
       0.846242             0.00771079719             0.00122256076           
       0.848883             0.00709535748             0.00120014779           
       0.851523             0.00851974602              0.0012987704           
       0.854163             0.00895118845             0.00141572396           
       0.856804             0.00669924381             0.00110122753           
       0.859444             0.00813034001              0.0011886636           
       0.862085             0.00717990876             0.00116422282           
       0.864725             0.00593637486             0.00108338135           
       0.867365             0.00661877432             0.00106078014           
       0.870006             0.00753375842             0.00107845076           
       0.872646             0.00713804998             0.00110080406           
       0.875286              0.0101752474             0.00126443272           
       0.877927              0.0090548997             0.00115098958           
       0.880567             0.00692462645             0.00104278798           
       0.883208              0.0070952365             0.00104561172           
       0.885848             0.00713418374             0.00108863523           
       0.888488             0.00715116487             0.00102228713           
       0.891129             0.00614200757            0.000972796178           
       0.893769              0.0060472815            0.000923784168           
       0.896410              0.0091468141             0.00105926473           
       0.899050              0.0068260493             0.00100632817           
       0.901690             0.00844060327             0.00121894865           
       0.904331             0.00677984616            0.000968532719           
       0.906971             0.00832819386             0.00114196864           
       0.909611             0.00791492925             0.00101343617           
       0.912252             0.00911957648             0.00112361203           
       0.914892             0.00661061801             0.00104540731           
       0.917533             0.00808926748             0.00109397792           
       0.920173             0.00634812324            0.000899150915           
       0.922813             0.00855298493             0.00109522814           
       0.925454             0.00692659538            0.000887515768           
       0.928094             0.00812982532             0.00102650002           
       0.930734             0.00674216637             0.00100641415           
       0.933375             0.00940836013             0.00117718158           
       0.936015             0.00764872991            0.000963982799           
       0.938656             0.00671971453            0.000969290838           
       0.941296             0.00884351902              0.0010077468           
       0.943936             0.00672700155            0.000861917863           
       0.946577             0.00739736963            0.000897869156           
       0.949217              0.0058653614             0.00073521837           
       0.951858             0.00768508354            0.000880961941           
       0.954498             0.00663945608            0.000947792953           
       0.957138             0.00606185447            0.000857958847           
       0.959779             0.00719358899            0.000921346287           
       0.962419             0.00917254035             0.00103346664           
       0.965059             0.00926910644             0.00109264301           
       0.967700              0.0068798571            0.000964124625           
       0.970340             0.00707439346            0.000865132791           
       0.972981             0.00771261513            0.000823006214           
       0.975621             0.00826393437            0.000906289614           
       0.978261              0.0066204156            0.000770761813           
       0.980902             0.00777336577            0.000999255878           
       0.983542             0.00846445208            0.000923404767           
       0.986182             0.00789100578            0.000875344846           
       0.988823             0.00779742254            0.000844906279           
       0.991463              0.0103140372             0.00103673867           
       0.994104             0.00882024127            0.000935253442           
       0.996744             0.00804692417             0.00091117292           
       0.999384             0.00826136304            0.000825679871           
       1.002025             0.00810519697             0.00091281598           
       1.004665             0.00851430132             0.00085499457           
       1.007306              0.0095097528            0.000898969164           
       1.009946              0.0079585114            0.000838719424           
       1.012586             0.00820348007            0.000829339862           
       1.015227             0.00978066244            0.000972855795           
       1.017867             0.00768532672            0.000828800761           
       1.020507             0.00948835068            0.000892020628           
       1.023148              0.0066378478            0.000805055143           
       1.025788             0.00696720281            0.000756263601           
       1.028429             0.00802603238             0.00085038705           
       1.031069             0.00806905304            0.000802388755           
       1.033709             0.00846334281            0.000873531933           
       1.036350             0.00772135364            0.000749371183           
       1.038990             0.00875135985            0.000812449465           
       1.041630             0.00805532655            0.000812996503           
       1.044271             0.00776623218            0.000750748226           
       1.046911             0.00938012771            0.000867871423           
       1.049552             0.00727729178            0.000803127347           
       1.052192             0.00791533321            0.000764830489           
       1.054832             0.00918675857            0.000831466191           
       1.057473             0.00930668184              0.0008249826           
       1.060113             0.00834429068            0.000761847047           
       1.062754             0.00825815719            0.000773807422           
       1.065394             0.00728423174            0.000768359351           
       1.068034             0.00911174385            0.000781896379           
       1.070675             0.00760345746            0.000745056956           
       1.073315             0.00925770135            0.000833904551           
       1.075955             0.00869320525            0.000762874366           
       1.078596              0.0084783173            0.000800700485           
       1.081236             0.00915243096            0.000796621223           
       1.083877               0.010357704            0.000839850363           
       1.086517             0.00900347802            0.000839631356           
       1.089157             0.00825624268            0.000834275939           
       1.091798             0.00854119295            0.000743938322           
       1.094438             0.00912624755            0.000766513497           
       1.097078             0.00830567186            0.000701337712           
       1.099719             0.00727342379             0.00070989999           
       1.102359             0.00819938067            0.000705881137           
       1.105000             0.00844368193            0.000800985186           
       1.107640              0.0095949446            0.000816416069           
       1.110280             0.00976170652            0.000751362912           
       1.112921             0.00962133977            0.000801302253           
       1.115561              0.0090036328              0.0007367181           
       1.118202             0.00960641684            0.000761696914           
       1.120842             0.00898975342            0.000774427495           
       1.123482             0.00930901832            0.000784617206           
       1.126123             0.00856950477            0.000722068209           
       1.128763             0.00943041512            0.000762664034           
       1.131403             0.00886770554            0.000712629532           
       1.134044              0.0081346261            0.000702333502           
       1.136684             0.00951074607             0.00080967312           
       1.139325             0.00947938396            0.000744639181           
       1.141965             0.00875488849            0.000720348669           
       1.144605              0.0112518618            0.000778666852           
       1.147246             0.00890728037             0.00070902769           
       1.149886              0.0089679554            0.000708912918           
       1.152527             0.00853391674            0.000701601327           
       1.155167             0.00928712444            0.000696156529           
       1.157807             0.00779493022            0.000683816133           
       1.160448             0.00828704679            0.000688520311           
       1.163088             0.00853479341            0.000666491702           
       1.165728              0.0095868906            0.000725251581           
       1.168369             0.00888741517            0.000704743987           
       1.171009             0.00918878068            0.000695434111           
       1.173650             0.00903041783             0.00070750456           
       1.176290              0.0100038237            0.000727700384           
       1.178930              0.0088430729            0.000670559954           
       1.181571             0.00966841902            0.000715058675           
       1.184211             0.00915108857            0.000698131813           
       1.186851             0.00865911268            0.000663952419           
       1.189492              0.0105094135            0.000726537282           
       1.192132             0.00995669979            0.000699239635           
       1.194773             0.00842863597            0.000646160478           
       1.197413             0.00969202515            0.000663893927           
       1.200053             0.00822020465            0.000626945294           
       1.202694             0.00924673942            0.000632320155           
       1.205334              0.0101347865            0.000713415706           
       1.207975             0.00922175861            0.000649577547           
       1.210615             0.00962131257            0.000731953848           
       1.213255             0.00955015218            0.000653019438           
       1.215896             0.00970562768              0.0006702415           
       1.218536             0.00935181228            0.000632609938           
       1.221176             0.00960508665            0.000697028077           
       1.223817              0.0102796732            0.000676899124           
       1.226457              0.0103802909            0.000693907386           
       1.229098              0.0096070753            0.000667530613           
       1.231738               0.010476693            0.000700518962           
       1.234378             0.00908349125            0.000612915273           
       1.237019              0.0113191078            0.000705056866           
       1.239659              0.0107856121             0.00068224558           
       1.242299             0.00943973391            0.000630151664           
       1.244940                0.01057582            0.000648693943           
       1.247580             0.00962438418            0.000637751884           
       1.250221              0.0100188486            0.000646675079           
       1.252861             0.00980317857            0.000608975495           
       1.255501              0.0106227305            0.000688315937           
       1.258142              0.0103116336            0.000637254911           
       1.260782              0.0104786121            0.000656293433           
       1.263423             0.00986826599            0.000611982313           
       1.266063              0.0106232096            0.000650815732           
       1.268703              0.0110227344            0.000657439818           
       1.271344              0.0107980219            0.000672756769           
       1.273984              0.0104346017            0.000638722683           
       1.276624              0.0106345012            0.000632698002           
       1.279265              0.0103893714            0.000635748651           
       1.281905              0.0102309891            0.000633684118           
       1.284546              0.0116979588            0.000654955298           
       1.287186              0.0115008821            0.000637144845           
       1.289826              0.0106311108            0.000645607835           
       1.292467             0.00926870099            0.000589544094           
       1.295107             0.00995077035             0.00060478294           
       1.297747              0.0107068543            0.000600311096           
       1.300388             0.00958804275            0.000619280207           
       1.303028              0.0100921662            0.000606545173           
       1.305669               0.010415498            0.000630856715           
       1.308309              0.0100278104            0.000612908703           
       1.310949              0.0119414967            0.000668167645           
       1.313590             0.00991612275            0.000589840712           
       1.316230             0.00993576156            0.000630064938           
       1.318871               0.011400572            0.000660994811           
       1.321511              0.0102232024            0.000614331666           
       1.324151             0.00954351094            0.000575961651           
       1.326792              0.0100529273            0.000594788367           
       1.329432              0.0116003728            0.000634419573           
       1.332072              0.0112343432            0.000615025911           
       1.334713              0.0105621925            0.000615485843           
       1.337353              0.0117928209            0.000623702552           
       1.339994              0.0105768362             0.00061985167           
       1.342634              0.0116233629            0.000623111764           
       1.345274               0.011798555            0.000649703757           
       1.347915               0.010235277            0.000588422233           
       1.350555              0.0123965822            0.000658916802           
       1.353195              0.0106623239            0.000614091874           
       1.355836              0.0101400883            0.000589525946           
       1.358476              0.0104676359            0.000581692535           
       1.361117              0.0102633761             0.00057677977           
       1.363757              0.0107247084            0.000607603407           
       1.366397              0.0108088168            0.000591522543           
       1.369038               0.010919661            0.000600467881           
       1.371678              0.0102315989            0.000576117697           
       1.374319               0.011304432            0.000600354809           
       1.376959              0.0113715337            0.000596078603           
       1.379599              0.0115804668            0.000644657635           
       1.382240              0.0107143825            0.000582784731           
       1.384880              0.0116975767            0.000645002911           
       1.387520               0.011238718            0.000600444206           
       1.390161              0.0111224618            0.000567320535           
       1.392801              0.0108490472            0.000583782618           
       1.395442              0.0123731646            0.000631956351           
       1.398082              0.0116797966            0.000574978893           
       1.400722              0.0114015866            0.000595060907           
       1.403363              0.0118853625            0.000639524557           
       1.406003              0.0111738526            0.000580317948           
       1.408644              0.0111759828            0.000607978728           
       1.411284              0.0104992839            0.000558000581           
       1.413924              0.0108181902            0.000564311736           
       1.416565              0.0110307254            0.000567589684           
       1.419205              0.0101661241             0.00056840895           
       1.421845              0.0109100361            0.000588492881           
       1.424486              0.0115746124            0.000582651141           
       1.427126              0.0109379817            0.000588381048           
       1.429767              0.0106921345            0.000547338255           
       1.432407              0.0110127072            0.000581325764           
       1.435047               0.011444998            0.000556573773           
       1.437688               0.010911205            0.000551564915           
       1.440328              0.0101587533            0.000543176859           
       1.442968              0.0109104503            0.000575526857           
       1.445609              0.0113417399            0.000568177271           
       1.448249               0.010779859            0.000567949474           
       1.450890              0.0100673288            0.000545275986           
       1.453530              0.0118533893            0.000619007205           
       1.456170              0.0106699239            0.000569981984           
       1.458811              0.0115297822            0.000566564576           
       1.461451              0.0114399758            0.000565834194           
       1.464092              0.0115505699            0.000572279831           
       1.466732              0.0112057074             0.00055882811           
       1.469372              0.0108918835            0.000538053488           
       1.472013              0.0111538111            0.000587237524           
       1.474653              0.0113548444            0.000583365838           
       1.477293               0.011141855            0.000590048218           
       1.479934              0.0104331986            0.000544829925           
       1.482574              0.0101660745            0.000520247134           
       1.485215              0.0117338517            0.000569334861           
       1.487855              0.0103761094            0.000542445803           
       1.490495              0.0113034944            0.000564083013           
       1.493136              0.0113234443            0.000556841939           
       1.495776              0.0119088424            0.000568454141           
       1.498416                0.01176259            0.000583436417           
       1.501057              0.0104314478            0.000537323826           
       1.503697              0.0105989101            0.000529519595           
       1.506338              0.0101596672            0.000527904804           
       1.508978              0.0107736509            0.000538276229           
       1.511618              0.0113072172            0.000587285445           
       1.514259             0.00989939102            0.000530526176           
       1.516899              0.0115965074            0.000559084311           
       1.519540              0.0112166268            0.000558717519           
       1.522180              0.0108156165            0.000553458665           
       1.524820              0.0104397115            0.000540704948           
       1.527461              0.0107683329            0.000551865083           
       1.530101               0.011563909            0.000566168545           
       1.532741              0.0103331457            0.000532086164           
       1.535382              0.0104989291            0.000544971909           
       1.538022              0.0108742046            0.000522487222           
       1.540663             0.00990189772             0.00053625517           
       1.543303              0.0102437225            0.000506443168           
       1.545943              0.0116928794            0.000572694636           
       1.548584              0.0106350197            0.000555978811           
       1.551224              0.0107556523            0.000516962185           
       1.553864              0.0110924024            0.000554752814           
       1.556505              0.0110204322            0.000534164209           
       1.559145              0.0109716546            0.000539509727           
       1.561786              0.0112602207            0.000546979455           
       1.564426              0.0108959807            0.000521324133           
       1.567066              0.0107886012            0.000543549308           
       1.569707              0.0103442545            0.000522677449           
       1.572347             0.00991436692            0.000528638768           
       1.574988              0.0105390505            0.000518785361           
       1.577628              0.0109575018            0.000551600145           
       1.580268              0.0101953084            0.000515519172           
       1.582909              0.0103607029             0.00055084425           
       1.585549              0.0102398062            0.000531722468           
       1.588189              0.0105081377            0.000526888127           
       1.590830             0.00905093091            0.000488378718           
       1.593470             0.00991240031            0.000531329677           
       1.596111             0.00973659719            0.000514122118           
       1.598751              0.0103241275            0.000512977268           
       1.601391             0.00965555578            0.000507034654           
       1.604032             0.00884420049            0.000495408775           
       1.606672             0.00929717655            0.000493509124           
       1.609312             0.00992091194            0.000532166203           
       1.611953             0.00942126441            0.000507474922           
       1.614593             0.00969999524            0.000505102705           
       1.617234             0.00955634296            0.000519586016           
       1.619874             0.00942188199            0.000513879685           
       1.622514             0.00950148586            0.000509006333           
       1.625155              0.0100112503            0.000525568863           
       1.627795             0.00943678183            0.000497764477           
       1.630436             0.00857392194             0.00047198481           
       1.633076             0.00890192628             0.00048723578           
       1.635716              0.0096998837            0.000500691326           
       1.638357             0.00909773276            0.000486179473           
       1.640997             0.00895668646            0.000497008775           
       1.643637             0.00866003765            0.000475568858           
       1.646278             0.00878881899            0.000494144956           
       1.648918             0.00905690662            0.000502993262           
       1.651559             0.00893891423            0.000503584508           
       1.654199             0.00915937837            0.000495783205           
       1.656839             0.00915421448            0.000495816441           
       1.659480               0.008035951            0.000481990901           
       1.662120             0.00952862828            0.000494322454           
       1.664761             0.00877447273            0.000492734877           
       1.667401             0.00953410961              0.0004909118           
       1.670041             0.00893580858            0.000482505605           
       1.672682             0.00848906861            0.000468356716           
       1.675322             0.00844483773            0.000464131072           
       1.677962             0.00908085563            0.000475982439           
       1.680603             0.00967614336            0.000492848083           
       1.683243              0.0097348408            0.000515752307           
       1.685884             0.00860625988            0.000488516577           
       1.688524             0.00994997009            0.000515116895           
       1.691164             0.00839343316            0.000473220213           
       1.693805             0.00875819728            0.000488703796           
       1.696445             0.00907184457            0.000500262664           
       1.699085             0.00869122908            0.000473248342           
       1.701726             0.00872717404            0.000456833924           
       1.704366             0.00865939921            0.000479389644           
       1.707007             0.00784084131             0.00044600084           
       1.709647             0.00983385558            0.000505118523           
       1.712287             0.00881387129            0.000482368104           
       1.714928             0.00834919566            0.000473265721           
       1.717568             0.00732491329            0.000417577131           
       1.720209             0.00930012849            0.000492839161           
       1.722849             0.00795767906            0.000453539831           
       1.725489             0.00805026446            0.000456553649           
       1.728130             0.00872983718            0.000505252624           
       1.730770             0.00832750401            0.000468666225           
       1.733410             0.00873041525            0.000472326998           
       1.736051             0.00872961168             0.00047559272           
       1.738691              0.0081241661            0.000449503383           
       1.741332             0.00861193888            0.000476333329           
       1.743972             0.00955798437            0.000518209229           
       1.746612             0.00844839561            0.000467838171           
       1.749253              0.0079257347            0.000462084419           
       1.751893             0.00862361391            0.000478461122           
       1.754533             0.00921947311            0.000494252966           
       1.757174             0.00876588242            0.000477428066           
       1.759814             0.00861485818            0.000466123208           
       1.762455             0.00883329684            0.000480662573           
       1.765095             0.00846922882            0.000450236813           
       1.767735              0.0086229346            0.000468319329           
       1.770376             0.00858208067            0.000468440295           
       1.773016             0.00813772464            0.000453096426           
       1.775657             0.00943525647            0.000480863373           
       1.778297             0.00844133902            0.000450914985           
       1.780937             0.00864338528            0.000481602819           
       1.783578             0.00903344505            0.000480038994           
       1.786218             0.00924611187            0.000506835901           
       1.788858               0.008846617            0.000470857721           
       1.791499             0.00949274459            0.000482271786           
       1.794139             0.00903638003            0.000466718825           
       1.796780             0.00830127214            0.000445175899           
       1.799420             0.00831933004            0.000443191881           
       1.802060              0.0093023574            0.000472430539           
       1.804701             0.00888014228            0.000442957693           
       1.807341             0.00927294751             0.00047563523           
       1.809981             0.00854502257            0.000458107359           
       1.812622             0.00957946126            0.000476311709           
       1.815262             0.00982637753            0.000492658789           
       1.817903             0.00925732943            0.000471095913           
       1.820543             0.00924305526            0.000478067649           
       1.823183             0.00898385736            0.000471057786           
       1.825824             0.00868775293             0.00044255099           
       1.828464             0.00847304711            0.000455641707           
       1.831105             0.00844217137            0.000442236224           
       1.833745             0.00886748913            0.000462919122           
       1.836385              0.0080327615            0.000453166455           
       1.839026             0.00829941489            0.000459171318           
       1.841666             0.00854178016              0.0004641758           
       1.844306             0.00843118233            0.000448577964           
       1.846947             0.00759651381            0.000429527706           
       1.849587             0.00829030746            0.000495488708           
       1.852228             0.00883898355            0.000462633494           
       1.854868             0.00788986804            0.000461720843           
       1.857508             0.00810450198            0.000463369277           
       1.860149             0.00821361873            0.000474953427           
       1.862789             0.00791052127            0.000449901755           
       1.865429             0.00825261811            0.000479675854           
       1.868070             0.00718493181            0.000441607056           
       1.870710             0.00874795977            0.000476045394           
       1.873351             0.00852490625            0.000475746652           
       1.875991             0.00828105473            0.000476545446           
       1.878631             0.00853329309            0.000474483862           
       1.881272             0.00781884678            0.000451143577           
       1.883912             0.00777557521             0.00046820825           
       1.886553             0.00815166396            0.000474038012           
       1.889193             0.00826383557            0.000476472862           
       1.891833             0.00881904349            0.000511188279           
       1.894474             0.00887756225            0.000508414788           
       1.897114             0.00818147755            0.000472300664           
       1.899754             0.00717574516            0.000444170304           
       1.902395             0.00773815885            0.000452230404           
       1.905035             0.00843976264            0.000500231161           
       1.907676             0.00850765822            0.000473361964           
       1.910316             0.00829295689            0.000479759822           
       1.912956             0.00808855614            0.000463386602           
       1.915597              0.0080503954              0.0004648759           
       1.918237             0.00832801114            0.000488311653           
       1.920878             0.00842973408            0.000489273709           
       1.923518             0.00781457691            0.000471283144           
       1.926158              0.0089392056            0.000497514951           
       1.928799             0.00949110591            0.000506709075           
       1.931439             0.00737087192            0.000458251589           
       1.934079             0.00791570823            0.000495057051           
       1.936720             0.00831524688            0.000470118103           
       1.939360             0.00779488461            0.000485603607           
       1.942001             0.00766643344            0.000441398132           
       1.944641              0.0078409628            0.000455187122           
       1.947281             0.00762235805            0.000444660212           
       1.949922             0.00756459777            0.000457551149           
       1.952562              0.0080913245            0.000488046013           
       1.955202             0.00789699698            0.000481562026           
       1.957843             0.00799000824            0.000471828037           
       1.960483             0.00830382058            0.000502889524           
       1.963124             0.00738335504             0.00046447045           
       1.965764             0.00870008693            0.000475463959           
       1.968404             0.00786001574             0.00044765622           
       1.971045             0.00826346287            0.000467976004           
       1.973685             0.00816434442            0.000487919061           
       1.976326             0.00834029884            0.000486371041           
       1.978966             0.00752937961            0.000466177358           
       1.981606             0.00826619706            0.000498641925           
       1.984247             0.00699512128            0.000455689304           
       1.986887             0.00707222471            0.000452705201           
       1.989527             0.00804702627            0.000477697223           
       1.992168             0.00746503003            0.000477391155           
       1.994808             0.00754288259            0.000477817028           
       1.997449             0.00774489489            0.000474229927           
       2.000089             0.00763719333            0.000469053983           
       2.002729             0.00743050547            0.000462940748           
       2.005370             0.00764676552             0.00046457616           
       2.008010             0.00782975696            0.000490618908           
       2.010650             0.00811123936             0.00050308614           
       2.013291             0.00755169179             0.00046573706           
       2.015931             0.00786498573            0.000471939963           
       2.018572             0.00734733237            0.000487889887           
       2.021212             0.00781284824            0.000494069302           
       2.023852             0.00789439451            0.000470047333           
       2.026493             0.00781345474            0.000488524269           
       2.029133              0.0077746016            0.000477501533           
       2.031774             0.00820032324            0.000514664758           
       2.034414             0.00802153746            0.000468372247           
       2.037054             0.00837034637            0.000490574313           
       2.039695             0.00824407033            0.000483182781           
       2.042335             0.00779505904            0.000488267266           
       2.044975             0.00790652586            0.000485782375           
       2.047616             0.00641607947            0.000436519466           
       2.050256             0.00795859388            0.000490769503           
       2.052897             0.00828498408            0.000509963153           
       2.055537             0.00779667112             0.00047811497           
       2.058177             0.00722147459            0.000450601852           
       2.060818             0.00749206904            0.000480802877           
       2.063458              0.0067202358            0.000474534231           
       2.066098             0.00778338719            0.000481754244           
       2.068739             0.00811252313            0.000499479817           
       2.071379             0.00805614584            0.000510722497           
       2.074020             0.00733806138            0.000476836508           
       2.076660              0.0075135185            0.000486404082           
       2.079300             0.00827575646            0.000522988568           
       2.081941             0.00791745887            0.000468374928           
       2.084581             0.00694225499            0.000462927804           
       2.087222             0.00743001134            0.000461866983           
       2.089862             0.00776446381             0.00051424093           
       2.092502             0.00768437914            0.000495905765           
       2.095143             0.00723460426            0.000496884123           
       2.097783             0.00773739026            0.000497503166           
       2.100423             0.00757336936            0.000474281707           
       2.103064             0.00661066667            0.000459789225           
       2.105704             0.00632487902              0.0004475131           
       2.108345             0.00722380263            0.000459478406           
       2.110985             0.00794498032            0.000514670482           
       2.113625             0.00746637383             0.00050328168           
       2.116266              0.0074736636            0.000510671174           
       2.118906             0.00715594407               0.000465691           
       2.121546              0.0084128465            0.000495294674           
       2.124187             0.00679248145            0.000467162468           
       2.126827             0.00699465623            0.000479354823           
       2.129468             0.00819433668            0.000520162136           
       2.132108             0.00727876828            0.000476968451           
       2.134748             0.00687826485            0.000461861656           
       2.137389             0.00735882046            0.000498384226           
       2.140029             0.00687617545            0.000431303857           
       2.142670              0.0078280893             0.00049181562           
       2.145310             0.00702720474            0.000453545072           
       2.147950             0.00778209832            0.000491256014           
       2.150591             0.00757114118            0.000479654872           
       2.153231             0.00731859248            0.000485425661           
       2.155871             0.00726162044            0.000467124606           
       2.158512                 0.0074303            0.000493039923           
       2.161152             0.00743562338            0.000477760282           
       2.163793             0.00879662823            0.000517308847           
       2.166433             0.00806748325            0.000508729257           
       2.169073             0.00756002052            0.000481505264           
       2.171714             0.00721457447            0.000466859456           
       2.174354             0.00725871098            0.000489314912           
       2.176995              0.0075907974            0.000498277339           
       2.179635             0.00684775043            0.000500102868           
       2.182275             0.00780036016            0.000503950291           
       2.184916             0.00748385552            0.000476773161           
       2.187556             0.00604254554            0.000424115592           
       2.190196             0.00718650047            0.000483329935           
       2.192837             0.00730569555             0.00048467027           
       2.195477             0.00689328994            0.000448844042           
       2.198118             0.00673602853            0.000455063634           
       2.200758             0.00787262861            0.000504721402           
       2.203398             0.00753519071            0.000496945141           
       2.206039             0.00700993732            0.000453628323           
       2.208679             0.00771742313            0.000487046777           
       2.211319              0.0072700438            0.000475444664           
       2.213960             0.00801906733            0.000506026869           
       2.216600             0.00704721058             0.00049072864           
       2.219241             0.00796096286              0.0004984834           
       2.221881             0.00676564258            0.000460483895           
       2.224521             0.00681094941            0.000467684722           
       2.227162             0.00820023675            0.000502896635           
       2.229802             0.00780672426            0.000506042096           
       2.232443             0.00797368374            0.000503358081           
       2.235083             0.00679859911            0.000478500567           
       2.237723             0.00697938424               0.000465256           
       2.240364             0.00733265067            0.000488633714           
       2.243004             0.00779268778            0.000499707536           
       2.245644             0.00730741295            0.000488741836           
       2.248285             0.00637449226            0.000447334052           
       2.250925             0.00769801746            0.000494571163           
       2.253566             0.00772778026            0.000529755569           
       2.256206             0.00697961852            0.000493392169           
       2.258846             0.00691958384            0.000467329523           
       2.261487             0.00661898455            0.000479733163           
       2.264127             0.00707091279            0.000478874688           
       2.266767             0.00773280688            0.000514128956           
       2.269408             0.00704478051            0.000492733432           
       2.272048             0.00796807042            0.000520900474           
       2.274689             0.00740384672            0.000508735348           
       2.277329             0.00709236125            0.000468822752           
       2.279969             0.00710245913              0.0004993901           
       2.282610             0.00679832971            0.000474992334           
       2.285250             0.00739314514            0.000474104094           
       2.287891             0.00751051705            0.000512330201           
       2.290531             0.00700005822             0.00050126232           
       2.293171             0.00657326337            0.000473155644           
       2.295812             0.00777505598            0.000512526159           
       2.298452             0.00738186067            0.000522238071           
       2.301092              0.0063199201            0.000448967137           
       2.303733             0.00690712717            0.000488299948           
       2.306373             0.00730114282            0.000509940571           
       2.309014             0.00780826843            0.000517065641           
       2.311654             0.00787996605             0.00054205417           
       2.314294             0.00696285482            0.000469436654           
       2.316935             0.00814298516            0.000509759944           
       2.319575             0.00912022389             0.00056525185           
       2.322215             0.00696099028            0.000514651011           
       2.324856             0.00669571732            0.000464064791           
       2.327496             0.00673015037            0.000494713755           
       2.330137             0.00715929186            0.000488263909           
       2.332777             0.00643846019            0.000477434908           
       2.335417              0.0069371146            0.000480785398           
       2.338058             0.00721663644            0.000505024653           
       2.340698             0.00688745862             0.00048949507           
       2.343339             0.00711612733            0.000508503672           
       2.345979             0.00738126335            0.000489965203           
       2.348619             0.00635314266            0.000471179023           
       2.351260             0.00687313317            0.000487226966           
       2.353900              0.0075575815            0.000509292662           
       2.356540             0.00664458561            0.000476862334           
       2.359181             0.00685543086            0.000477578508           
       2.361821             0.00719539818            0.000472628555           
       2.364462             0.00683541599            0.000481786635           
       2.367102             0.00793532011            0.000533462548           
       2.369742             0.00667974766            0.000515172106           
       2.372383             0.00766894036            0.000499835692           
       2.375023             0.00735129499            0.000514438849           
       2.377663             0.00767116701            0.000502466536           
       2.380304             0.00719019177            0.000494570597           
       2.382944             0.00703300766            0.000465885458           
       2.385585             0.00696095042            0.000494322931           
       2.388225             0.00699285128            0.000493126218           
       2.390865             0.00685377955            0.000483183136           
       2.393506               0.007546037            0.000497432799           
       2.396146             0.00682161373            0.000511378748           
       2.398787             0.00742575237            0.000491701187           
       2.401427             0.00630631974            0.000437371091           
       2.404067             0.00882276335            0.000528865375           
       2.406708             0.00728550258             0.00047482459           
       2.409348             0.00671360116            0.000483472737           
       2.411988             0.00737335546            0.000496426364           
       2.414629             0.00786367692            0.000528633078           
       2.417269             0.00672791632            0.000494678379           
       2.419910             0.00699302052            0.000505500549           
       2.422550             0.00729243752            0.000493876962           
       2.425190              0.0072578272            0.000519361028           
       2.427831             0.00783739716            0.000536665608           
       2.430471             0.00723755249            0.000491322609           
       2.433112             0.00660914834             0.00045718955           
       2.435752             0.00722040182            0.000505729206           
       2.438392             0.00658866905            0.000466289318           
       2.441033             0.00756290248            0.000529449294           
       2.443673             0.00737922044              0.0005233824           
       2.446313             0.00758007856            0.000530925361           
       2.448954             0.00684065635            0.000480226606           
       2.451594             0.00782501309              0.0005522589           
       2.454235             0.00723788844            0.000498341625           
       2.456875              0.0079584163            0.000546783021           
       2.459515             0.00742954937            0.000541979177           
       2.462156             0.00754239641            0.000515575301           
       2.464796             0.00677173813             0.00048222301           
       2.467436             0.00789607631            0.000538484722           
       2.470077              0.0082171271            0.000520658423           
       2.472717              0.0080451804            0.000517413789           
       2.475358             0.00814036105            0.000525892417           
       2.477998             0.00702276418            0.000480225386           
       2.480638             0.00750311878            0.000505197546           
       2.483279             0.00686495383            0.000505058481           
       2.485919             0.00644779876            0.000471718988           
       2.488560             0.00651727328            0.000472928408           
       2.491200             0.00727960331            0.000514685664           
       2.493840             0.00729420807            0.000545150869           
       2.496481             0.00653031596            0.000507378286           
       2.499121             0.00701175223            0.000511374404           
       2.501761             0.00669701523            0.000506387233           
       2.504402             0.00725333004             0.00051930081           
       2.507042             0.00725557404            0.000515533596           
       2.509683             0.00717461992            0.000504814415           
       2.512323             0.00721250269            0.000531578413           
       2.514963             0.00663778727            0.000503659594           
       2.517604             0.00731564968            0.000548661356           
       2.520244             0.00730397899            0.000513960571           
       2.522884             0.00795829214            0.000544160251           
       2.525525              0.0101743441            0.000622259663           
       2.528165             0.00791708346            0.000540353646           
       2.530806             0.00831553072             0.00056343666           
       2.533446             0.00719382416            0.000512873121           
       2.536086             0.00873429927            0.000560066328           
       2.538727             0.00690494555            0.000477729138           
       2.541367             0.00652933773            0.000469130039           
       2.544008             0.00797036055            0.000535297656           
       2.546648             0.00787776764             0.00054130756           
       2.549288             0.00763269113            0.000543677697           
       2.551929             0.00707532964            0.000515107084           
       2.554569             0.00754606658            0.000512505452           
       2.557209              0.0060312112            0.000462392415           
       2.559850             0.00716449589            0.000505584358           
       2.562490             0.00681916671             0.00050979962           
       2.565131              0.0086483653            0.000595270987           
       2.567771             0.00666651975            0.000503897215           
       2.570411             0.00678721691            0.000502937042           
       2.573052             0.00783256436            0.000547085149           
       2.575692             0.00663495824            0.000500477056           
       2.578332             0.00685262366            0.000510723372           
       2.580973             0.00661362369            0.000496964171           
       2.583613             0.00636879133            0.000476066679           
       2.586254             0.00692509274            0.000495733293           
       2.588894             0.00781179535            0.000546760659           
       2.591534             0.00598785665            0.000495537594           
       2.594175             0.00686355466            0.000520525215           
       2.596815             0.00771301281            0.000555050424           
       2.599456             0.00729588605            0.000511921131           
       2.602096              0.0070020575            0.000505323481           
       2.604736             0.00622582557             0.00048779011           
       2.607377              0.0070928475            0.000506927952           
       2.610017             0.00656746288            0.000479255889           
       2.612657             0.00705376883            0.000528297216           
       2.615298             0.00682991986            0.000507534178           
       2.617938             0.00663889228            0.000535285327           
       2.620579             0.00706744913            0.000530194875           
       2.623219             0.00646356124             0.00050631477           
       2.625859             0.00716128438            0.000518169319           
       2.628500             0.00685042915            0.000503476408           
       2.631140             0.00701984407            0.000517517066           
       2.633780             0.00650914763            0.000497903638           
       2.636421              0.0073086031            0.000540569267           
       2.639061             0.00668393932            0.000486651104           
       2.641702             0.00833825083            0.000556132802           
       2.644342             0.00699842315            0.000511667366           
       2.646982             0.00616816895            0.000473177546           
       2.649623             0.00749523675             0.00054661723           
       2.652263             0.00792704163             0.00055650115           
       2.654904             0.00709079567            0.000526859332           
       2.657544             0.00777049328            0.000519486858           
       2.660184             0.00699922556            0.000521771617           
       2.662825             0.00666962335            0.000521154597           
       2.665465             0.00739286886            0.000530667952           
       2.668105             0.00658914496            0.000528064895           
       2.670746             0.00743445618             0.00051816622           
       2.673386             0.00842904244            0.000568611181           
       2.676027             0.00789046387            0.000541316029           
       2.678667              0.0100509861             0.00059613212           
       2.681307              0.0110823529            0.000615052053           
       2.683948              0.0145774831            0.000724768646           
       2.686588              0.0105409483            0.000606087622           
       2.689229              0.0101257166            0.000580461654           
       2.691869             0.00946089833             0.00059300857           
       2.694509             0.00846717881            0.000561309925           
       2.697150              0.0084323463            0.000551066226           
       2.699790             0.00750499153            0.000545021466           
       2.702430             0.00719604673            0.000510139288           
       2.705071             0.00693390737            0.000517442348           
       2.707711             0.00735830306            0.000517357633           
       2.710352             0.00694699413            0.000531155202           
       2.712992             0.00716416249            0.000549366871           
       2.715632             0.00736330918            0.000516739177           
       2.718273             0.00755786938            0.000542559627           
       2.720913             0.00680334738            0.000513300439           
       2.723553             0.00624864275            0.000495230441           
       2.726194              0.0060348116            0.000508744349           
       2.728834             0.00742749645             0.00056466735           
       2.731475             0.00821116347            0.000547941558           
       2.734115             0.00772474172            0.000547958243           
       2.736755             0.00648556682             0.00050622013           
       2.739396             0.00706150302            0.000525158578           
       2.742036             0.00585616796            0.000500511697           
       2.744677              0.0065587318            0.000513940148           
       2.747317             0.00654605586            0.000509782039           
       2.749957              0.0067105671            0.000519770285           
       2.752598             0.00797574566            0.000572803016           
       2.755238              0.0070609588            0.000548683068           
       2.757878             0.00817526717            0.000585230373           
       2.760519               0.007867392            0.000568017562           
       2.763159             0.00928147095            0.000610791427           
       2.765800             0.00726823145            0.000515091869           
       2.768440             0.00758710875            0.000530146802           
       2.771080             0.00941398566            0.000595463043           
       2.773721             0.00654202619            0.000509196344           
       2.776361             0.00749065324            0.000552382045           
       2.779001             0.00798895597            0.000590768481           
       2.781642             0.00676125805            0.000539477915           
       2.784282             0.00745645845            0.000575850367           
       2.786923             0.00725103767            0.000572862721           
       2.789563             0.00796646846              0.0005783126           
       2.792203             0.00596860176            0.000478188633           
       2.794844             0.00707380385            0.000570549771           
       2.797484              0.0060073151            0.000496211667           
       2.800125              0.0065627744            0.000545355786           
       2.802765             0.00690060712            0.000549595911           
       2.805405             0.00665493145            0.000541550637           
       2.808046             0.00706689621            0.000567871395           
       2.810686              0.0062324383            0.000490032837           
       2.813326             0.00606657496            0.000502190098           
       2.815967             0.00654394068            0.000536403982           
       2.818607             0.00683562262            0.000523159975           
       2.821248              0.0069891423            0.000518019539           
       2.823888             0.00697973228            0.000537355304           
       2.826528             0.00607480194            0.000485496035           
       2.829169             0.00735957266            0.000559727593           
       2.831809             0.00638253841            0.000528341436           
       2.834449             0.00649538962            0.000536360188           
       2.837090             0.00657330722            0.000521136767           
       2.839730             0.00646730871            0.000514394049           
       2.842371             0.00622899883            0.000505556393           
       2.845011             0.00695484709            0.000538458587           
       2.847651             0.00677775141            0.000532211659           
       2.850292             0.00719932489            0.000553896854           
       2.852932              0.0081433747            0.000601933189           
       2.855573             0.00622099034            0.000510340697           
       2.858213             0.00752309289            0.000589342973           
       2.860853             0.00635329771            0.000503801805           
       2.863494             0.00654857604            0.000529572147           
       2.866134             0.00729318611            0.000580875487           
       2.868774             0.00714231792            0.000564945999           
       2.871415             0.00630461983            0.000539050464           
       2.874055             0.00812390054            0.000584902762           
       2.876696             0.00653309725            0.000538706142           
       2.879336             0.00718773656            0.000544601522           
       2.881976             0.00608928116            0.000517018393           
       2.884617             0.00864134521            0.000606859397           
       2.887257             0.00817894092            0.000593446826           
       2.889897             0.00657130543            0.000520987896           
       2.892538             0.00724535855            0.000599301791           
       2.895178             0.00599146852            0.000492355056           
       2.897819              0.0059685945            0.000501289556           
       2.900459             0.00676038285            0.000523126365           
       2.903099             0.00773720617            0.000553916936           
       2.905740             0.00730385133            0.000552105138           
       2.908380             0.00725460768            0.000556492814           
       2.911021             0.00770792431            0.000582942149           
       2.913661             0.00629824101            0.000526788448           
       2.916301             0.00648522998            0.000535060954           
       2.918942             0.00746488185            0.000549095871           
       2.921582             0.00596823678            0.000513701714           
       2.924222             0.00797903259            0.000575440842           
       2.926863             0.00794399159             0.00059807046           
       2.929503             0.00782920154             0.00060076792           
       2.932144             0.00637248546            0.000520290613           
       2.934784             0.00740339246            0.000551603147           
       2.937424             0.00612923106            0.000507049582           
       2.940065             0.00618761499            0.000485975568           
       2.942705             0.00685612903            0.000510913152           
       2.945346             0.00673232929            0.000537290585           
       2.947986             0.00673723549            0.000548050047           
       2.950626             0.00661642611            0.000540056188           
       2.953267             0.00647447279            0.000525599658           
       2.955907             0.00643057646            0.000543385939           
       2.958547             0.00707448409            0.000538054696           
       2.961188             0.00686449996            0.000552947687           
       2.963828             0.00813306253            0.000588745478           
       2.966469             0.00636433707             0.00051091022           
       2.969109             0.00760467892            0.000566755804           
       2.971749             0.00722315478            0.000548910113           
       2.974390             0.00749991925            0.000549641488           
       2.977030             0.00859621802            0.000601594379           
       2.979670             0.00828439101            0.000574454903           
       2.982311             0.00777017597            0.000576619461           
       2.984951              0.0067746481            0.000512080138           
       2.987592             0.00685076198            0.000525262738           
       2.990232             0.00728258566            0.000563220943           
       2.992872             0.00784070789            0.000550476114           
       2.995513             0.00873583995            0.000568457722           
       2.998153              0.0108859892            0.000645231954           
       3.000794              0.0135836189            0.000698128472           
       3.003434              0.0111485116            0.000633419293           
       3.006074              0.0460732193             0.00126962955           
       3.008715               0.118568178              0.0019660983           
       3.011355               0.186757091             0.00237948103           
       3.013995              0.0940423991             0.00169311145           
       3.016636              0.0601052612             0.00132546335           
       3.019276               0.128934236             0.00190827137           
       3.021917               0.480190145             0.00354106436           
       3.024557                1.64239294             0.00643866326           
       3.027197                1.16825764             0.00529428921           
       3.029838               0.510133029             0.00354810993           
       3.032478               0.265195566             0.00256082459           
       3.035118              0.0701101196             0.00133436562           
       3.037759              0.0950535002             0.00155170032           
       3.040399               0.133396343             0.00189616231           
       3.043040                0.52431838             0.00380532745           
       3.045680               0.403702562             0.00314158925           
       3.048320               0.085271771             0.00147525962           
       3.050961               0.110766295              0.0017110211           
       3.053601              0.0866700079             0.00145769588           
       3.056242              0.0554208175              0.0012393359           
       3.058882              0.0480653987             0.00123807901           
       3.061522              0.0382792719             0.00108401602           
       3.064163              0.0435153856             0.00114122625           
       3.066803               0.105403518             0.00186989595           
       3.069443               0.102397484             0.00192829095           
       3.072084              0.0529378381             0.00135005342           
       3.074724              0.0399830644             0.00131029858           
       3.077365              0.0887681105             0.00202103718           
       3.080005               0.018222518            0.000920882006           
       3.082645             0.00933880438            0.000692550027           
       3.085286               0.014026388            0.000855443682           
       3.087926              0.0111114984            0.000755517749           
       3.090566             0.00990047938             0.00069875834           
       3.093207              0.0116732542             0.00078955091           
       3.095847             0.00872899375            0.000654412263           
       3.098488              0.0091084338             0.00074123464           
       3.101128              0.0114936323            0.000838004874           
       3.103768              0.0100682483            0.000769566932           
       3.106409              0.0102563204            0.000826640419           
       3.109049             0.00735818883            0.000671922825           
       3.111690             0.00799494128            0.000688369089           
       3.114330             0.00739520421            0.000676130895           
       3.116970             0.00734358082            0.000678939439           
       3.119611              0.0121585903            0.000929902607           
       3.122251               0.020832626             0.00127324941           
       3.124891              0.0375325167             0.00172493178           
       3.127532              0.0250082397             0.00137745601           
       3.130172              0.0157891255             0.00111341088           
       3.132813             0.00929540226            0.000841029103           
       3.135453             0.00842685556            0.000794177397           
       3.138093             0.00613535571            0.000734256363           
       3.140734             0.00756521609            0.000752213513           
       3.143374             0.00844270305            0.000840368091           
       3.146014             0.00619044443             0.00077467964           
       3.148655             0.00718812677            0.000776000047           
       3.151295             0.00666164847             0.00079608951           
       3.153936             0.00735427549             0.00080798735           
       3.156576             0.00612514128            0.000727352332           
       3.159216             0.00679102496            0.000769699638           
       3.161857             0.00534424077            0.000680026031           
       3.164497             0.00734808213            0.000837824707           
       3.167138             0.00946662381            0.000982577102           
       3.169778             0.00650386334             0.00080100085           
       3.172418             0.00695592798            0.000819944984           
       3.175059             0.00665188082            0.000710851498           
       3.177699             0.00510271522            0.000659293008           
       3.180339             0.00653882688            0.000799628877           
       3.182980             0.00510236402            0.000730301389           
       3.185620             0.00542783398            0.000767104302           
       3.188261             0.00593978748            0.000816786216           
       3.190901             0.00646394077             0.00078365053           
       3.193541             0.00650856082            0.000826264854           
       3.196182             0.00694759623            0.000889654921           
       3.198822             0.00569299623            0.000805601541           
       3.201463             0.00681514713            0.000866243464           
       3.204103             0.00455153936            0.000703608591           
       3.206743             0.00741086966            0.000897730137           
       3.209384             0.00545437234            0.000832097197           
       3.212024             0.00429653325             0.00068852988           
       3.214664             0.00657332642            0.000968436581           
       3.217305             0.00564436087              0.0008530405           
       3.219945             0.00627842327            0.000926001858           
       3.222586              0.0045748019            0.000752887553           
       3.225226             0.00549531137            0.000915390613           
       3.227866             0.00686290741            0.000934987476           
       3.230507             0.00560412287            0.000875831599           
       3.233147             0.00795173941             0.00105169701           
       3.235787             0.00623292206            0.000952884453           
       3.238428             0.00559301097            0.000974068737           
       3.241068              0.0066669931            0.000994412243           
       3.243709              0.0058412322            0.000961658361           
       3.246349             0.00513076186             0.00082160032           
       3.248989             0.00513341563            0.000970377875           
       3.251630             0.00611857965             0.00102018038           
       3.254270             0.00460560469            0.000791044216           
       3.256911             0.00451175977            0.000854278227           
       3.259551             0.00484849695              0.0009534105           
       3.262191             0.00528066318               0.001016337           
       3.264832             0.00468509446             0.00100024572           
       3.267472             0.00468127651            0.000937955622           
       3.270112             0.00641220348             0.00121315461           
       3.272753             0.00343590932            0.000812845742           
       3.275393             0.00559957153             0.00105879812           
       3.278034             0.00558432979             0.00105795144           
       3.280674             0.00541920972              0.0011309242           
       3.283314             0.00489566114            0.000961348396           
       3.285955             0.00748356574             0.00122635641           
       3.288595             0.00473895821             0.00108572164           
       3.291235             0.00523317588             0.00117286822           
       3.293876             0.00811868702             0.00148185536           
       3.296516             0.00498085683              0.0011142851           
       3.299157             0.00779496404             0.00137644799           
       3.301797             0.00502593323             0.00126074357           
       3.304437              0.0061933003             0.00121251845           
       3.307078              0.0059900243             0.00131356136           
       3.309718             0.00553166577             0.00130292477           
       3.312359              0.0073843639             0.00150574376           
       3.314999             0.00355619653              0.0010288196           
       3.317639             0.00545447045             0.00121857376           
       3.320280             0.00764928338             0.00153427593           
       3.322920             0.00698162183             0.00149045896           
       3.325560             0.00599272252              0.0013818118           
       3.328201             0.00670015847             0.00131589486           
       3.330841             0.00345350756             0.00114979852           
       3.333482             0.00478084006             0.00127873617           
       3.336122             0.00477487503             0.00127852562           
       3.338762              0.0063499418             0.00170315244           
       3.341403             0.00583318297             0.00155980506           
       3.344043             0.00690139791             0.00162890066           
       3.346683             0.00640672676             0.00160226827           
       3.349324             0.00608016453             0.00175496402           
       3.351964              0.0033759822             0.00138285194           
       3.354605             0.00669604034             0.00222730069           
       3.357245             0.00419537924             0.00159042499           
       3.359885             0.00386150016             0.00122121233           
       3.362526             0.00418302642             0.00158948593           
       3.365166             0.00592625706              0.0017844421           
       3.367807             0.00172469974              0.0012319979           
       3.370447             0.00606015356             0.00191566101           
       3.373087             0.00480928892             0.00182492296           
       3.375728             0.00354001349             0.00176703759           
       3.378368             0.00194657153             0.00194468119           
       3.381008             0.00324092472             0.00187079343           
       3.383649             0.00277936895             0.00138978918           
       3.386289             0.00683625819             0.00257967856           
       3.388930             0.00483491877             0.00343158114           
       3.391570             0.00483257109             0.00242689672           
       3.394210             0.00192721748             0.00193953446           
       3.396851             0.00731893396             0.00422795005           
       3.399491             0.00727939994             0.00421770125           
       3.402131             0.00968735613              0.0068837826           
       3.404772           -2.61453826e-05                         0           
       3.407412                       nan                       nan           
       3.410053              0.0183433569              0.0134158402           
       3.412693                       nan                       nan           
       3.415333           -2.62598653e-05                         0           
