################################################################################
# EDF_DataBlockID                     0.Image.Psd
# EDF_BinarySize                      2105344
# EDF_HeaderSize                      2560
# ByteOrder                           LowByteFirst
# DataType                            FloatValue
# Dim_1                               512
# Dim_2                               1028
# Image                               0
# HeaderID                            EH:000000:000000:000000
# Size                                2105344
# Center_1                            304.9000
# Center_2                            588.7000
# Comment                             Xenocs_Cell_Window - 20251028_20perc_iodine_1.23mg
# DDummy                              0.6
# Date                                2025-10-31T03:38:02
# Delta                               21.910000
# Dummy                               -1.5
# ExposureTime                        360
# Gamma                               15.360000
# Intensity1                          8.57021e-10
# PSize_1                             7.5e-05
# PSize_2                             7.5e-05
# Pressure                            0.0328121
# SampleDistance                      0.115750
# SampleEnvKind                       large
# SampleEnvPN                         ElectroChemical cell
# SampleEnvSN                         1141
# Thickness                           0
# Wavelength                          1.541891e-10
# Wavelength                          1.54189e-10
# aux                                 0
# aux_dial                            0.002375
# beamx                               588.434
# beamx_dial                          588.434
# beamz                               657.808
# beamz_dial                          657.808
# det0x                               0
# det0x_dial                          6.36945
# det0xvd                             0
# det0xvd_dial                        0
# det0y                               450.002
# det0y_dial                          481.635
# det0z                               0
# det0z_dial                          1.23302
# det0zvd                             0
# det0zvd_dial                        0
# mag                                 1.818
# mag_dial                            1.818
# om                                  0.2499
# om_dial                             -0.610199
# phi                                 -0.0120535
# phi_dial                            0
# ry                                  0.599993
# ry_dial                             0.599993
# s1bot                               0.8
# s1bot_dial                          -1.66094
# s1hl                                0.8
# s1hl_dial                           -0.608437
# s1hr                                0.8
# s1hr_dial                           0.970938
# s1top                               0.8
# s1top_dial                          -0.461562
# s2bot                               0.45
# s2bot_dial                          1.36109
# s2hl                                0.45
# s2hl_dial                           -0.83375
# s2hr                                0.45
# s2hr_dial                           -0.118594
# s2top                               0.45
# s2top_dial                          1.44734
# w2theta                             32
# w2theta_dial                        32
# waxsch                              19.2605
# waxsch_dial                         -32.7355
# waxsh                               137.085
# waxsh_dial                          -43.5338
# waxsth                              26.0607
# waxsth_dial                         -19.4086
# waxsz                               67.0407
# waxsz_dial                          -23.7954
# wind                                65.9854
# wind_dial                           66.0041
# wpsi                                124
# wpsi_dial                           124
# wstod                               115
# wstod_dial                          115
# x                                   0
# x_dial                              1.00969
# z                                   0
# z_dial                              13.3172
# CountCutoff                         6807993
# DetectorModel                       Dectris EIGER2 Si 500K, S/N E-01-0554
# ThresholdSetting                    4023.88989258
# Saturation                          0
# FlatField                           Corrected
# BackgroundReductionExtra            0.02
# BackgroundCorrectionConstant        0.0026712
# Detector                            0
# Monitor                             0
# Pil_Roi0                            0
# SumForIntensity1                    3.08527e+08
# TransmittedFlux                     857021
# det                                 0
# mon                                 0
# pilai0                              3.08527e+08
# pilai1                              778348
# pilct0                              5.343e+08
# pilct1                              778348
# pilroi0                             0
# pilroi1                             0
# sec                                 1
# title                               20251028_20perc_iodine_1.23mg_1_00557.edf
# usaxs0                              0
# Operation                           Azimuthal average I(q)
# Error_model                         ErrorModel.poisson
# Geometrical_correction              True
# Transmission_correction             True
# Thickness_correction                False
# Binning mode                        Uniform
# Binning factor                      1.0
# Psi                                 0.0
# Omega                               0.2499
# MaskInvalidPixels                   True
# DetectorEdge                        3
# MaskFiles                           ['WAXS_corrected.edf']
################################################################################
    q(A⁻¹)                Intensity(a.u.)            Sigma_I(a.u.)            
       0.693100             0.00824970813             0.00604835994           
       0.695741              0.0111394192             0.00573531572           
       0.698381              0.0213024729             0.00971524873           
       0.701021           -2.36531298e-05                         0           
       0.703662             0.00562415993             0.00407342188           
       0.706302             0.00509897378             0.00300281865           
       0.708942           -2.36072399e-05                         0           
       0.711583             0.00437536426             0.00310886362           
       0.714223             0.00287371595             0.00290881702           
       0.716864             0.00746001791             0.00306644516           
       0.719504             0.00439279337             0.00253923859           
       0.722144             0.00372394308             0.00216511744           
       0.724785             0.00549641373             0.00209822015           
       0.727425             0.00871188345             0.00357361218           
       0.730065             0.00213889967             0.00125252907           
       0.732706             0.00618580248              0.0017887077           
       0.735346             0.00609807535              0.0023150579           
       0.737987             0.00914952924             0.00200383478           
       0.740627             0.00486164898             0.00217941943           
       0.743267             0.00568756774             0.00157889944           
       0.745908             0.00776889986             0.00200207188           
       0.748548             0.00919538579             0.00200770229           
       0.751189             0.00959515629              0.0027634836           
       0.753829             0.00805226155             0.00232709926           
       0.756469             0.00916842472             0.00200233473           
       0.759110             0.00627952878              0.0017463182           
       0.761750             0.00535387815             0.00142578735           
       0.764390              0.0103813168             0.00207803187           
       0.767031             0.00745255255             0.00152467636           
       0.769671             0.00925458479             0.00211942598           
       0.772312              0.0039136917              0.0010492632           
       0.774952             0.00669626471             0.00185339146           
       0.777592             0.00841266301             0.00151312493           
       0.780233             0.00715509158             0.00168360191           
       0.782873             0.00834709749              0.0017391706           
       0.785513             0.00782712533             0.00180044294           
       0.788154             0.00576817934             0.00129294921           
       0.790794             0.00740220938             0.00175106314           
       0.793435             0.00667741091              0.0014940853           
       0.796075             0.00618738206             0.00138545036           
       0.798715             0.00775120084             0.00183246102           
       0.801356             0.00637481407             0.00143027624           
       0.803996             0.00632723805             0.00145273355           
       0.806637             0.00885215287              0.0013674629           
       0.809277             0.00593528525              0.0012119738           
       0.811917              0.0078197054             0.00130048479           
       0.814558             0.00510559543             0.00109215213           
       0.817198             0.00483359346             0.00100957837           
       0.819838             0.00688333262             0.00121931683           
       0.822479             0.00595239379             0.00133147224           
       0.825119              0.0068868308             0.00121896074           
       0.827760             0.00731780249             0.00127280886           
       0.830400             0.00642420241             0.00112242585           
       0.833040             0.00537777801             0.00107592785           
       0.835681             0.00781281965             0.00147428247           
       0.838321             0.00647011077             0.00112607257           
       0.840961             0.00787230986             0.00135334213           
       0.843602              0.0103510138             0.00142310399           
       0.846242             0.00760073966             0.00121929373           
       0.848883             0.00696526486             0.00119447208           
       0.851523             0.00677137914             0.00116310045           
       0.854163              0.0079090496             0.00133678012           
       0.856804              0.0084420784             0.00124179085           
       0.859444             0.00719147189             0.00112298279           
       0.862085             0.00668181796             0.00112819342           
       0.864725             0.00760198208             0.00123152636           
       0.867365             0.00393527708            0.000821644305           
       0.870006             0.00636745344            0.000995948688           
       0.872646             0.00805605287              0.0011747379           
       0.875286              0.0066306252             0.00102532153           
       0.877927             0.00660239667            0.000987279166           
       0.880567             0.00570352031            0.000950668129           
       0.883208              0.0082409003             0.00113196743           
       0.885848             0.00703056292             0.00108558763           
       0.888488             0.00705384986             0.00101989908           
       0.891129             0.00652398432             0.00100712351           
       0.893769             0.00612061196            0.000933571195           
       0.896410             0.00641204864            0.000890897188           
       0.899050              0.0071788161             0.00103667096           
       0.901690             0.00872183565              0.0012446929           
       0.904331             0.00685175065            0.000978058315           
       0.906971             0.00663036358             0.00102354522           
       0.909611              0.0085031631             0.00105517072           
       0.912252             0.00571165662            0.000893243139           
       0.914892             0.00768145539             0.00113199851           
       0.917533             0.00475848045            0.000842844971           
       0.920173             0.00577326826            0.000861351437           
       0.922813             0.00649479461            0.000958711746           
       0.925454             0.00767260661            0.000938311916           
       0.928094             0.00689968332             0.00094993203           
       0.930734             0.00813279849             0.00111034158           
       0.933375              0.0063947302            0.000974893558           
       0.936015             0.00624659577            0.000875096447           
       0.938656             0.00678019136            0.000978045972           
       0.941296             0.00672589319            0.000882822615           
       0.943936               0.008230995            0.000957725131           
       0.946577             0.00712954405            0.000885451685           
       0.949217             0.00808956312            0.000867343429           
       0.951858             0.00976014286            0.000997287866           
       0.954498             0.00683615425            0.000966079237           
       0.957138             0.00979256208              0.0010953968           
       0.959779             0.00677280319            0.000898036328           
       0.962419             0.00680028242            0.000893870735           
       0.965059             0.00714951981            0.000963956401           
       0.967700             0.00667055152             0.00095363885           
       0.970340             0.00692541935            0.000859846255           
       0.972981             0.00750690522            0.000815628416           
       0.975621             0.00813811328            0.000903431099           
       0.978261             0.00623514557            0.000751381433           
       0.980902              0.0069626539             0.00094999028           
       0.983542              0.0079269494            0.000897646471           
       0.986182             0.00755538516            0.000860400987           
       0.988823             0.00730396955             0.00082143287           
       0.991463             0.00884491453            0.000964409259           
       0.994104             0.00861128536             0.00092828786           
       0.996744             0.00750449956            0.000883906476           
       0.999384             0.00783299551            0.000807624305           
       1.002025             0.00808978171            0.000916071658           
       1.004665             0.00683676185            0.000769615264           
       1.007306             0.00797692395            0.000827060928           
       1.009946             0.00687769048            0.000783216253           
       1.012586             0.00837708705            0.000841859445           
       1.015227             0.00847678681            0.000909786657           
       1.017867             0.00839006732            0.000869883902           
       1.020507             0.00839660389            0.000842928939           
       1.023148             0.00628488435            0.000786901234           
       1.025788             0.00777692994            0.000802615721           
       1.028429              0.0100039704            0.000953700437           
       1.031069             0.00839040618            0.000821910708           
       1.033709             0.00953068174            0.000931170911           
       1.036350              0.0079253425            0.000762638778           
       1.038990             0.00845045106            0.000801970012           
       1.041630             0.00778101229            0.000802647303           
       1.044271             0.00841354057            0.000784943005           
       1.046911             0.00884681422            0.000846650295           
       1.049552               0.007702792            0.000830009767           
       1.052192             0.00821980705            0.000782926513           
       1.054832              0.0074347351            0.000751373355           
       1.057473             0.00776012603            0.000756730677           
       1.060113             0.00765562038             0.00073303189           
       1.062754              0.0085538606            0.000791101121           
       1.065394             0.00924457979            0.000869512218           
       1.068034             0.00845669154            0.000756673097           
       1.070675              0.0091603902            0.000821486627           
       1.073315             0.00743237262            0.000750564632           
       1.075955             0.00831545359            0.000749489624           
       1.078596             0.00932272216            0.000843424529           
       1.081236             0.00860535025            0.000775938882           
       1.083877             0.00817158385            0.000749346848           
       1.086517             0.00741597829            0.000765468488           
       1.089157                0.00953175            0.000900459974           
       1.091798             0.00849913429             0.00074546045           
       1.094438             0.00792276313            0.000717416924           
       1.097078              0.0095204121            0.000754270772           
       1.099719             0.00952470869            0.000816043241           
       1.102359             0.00901524528            0.000743514467           
       1.105000             0.00821173909            0.000793479517           
       1.107640             0.00630682261            0.000664898287           
       1.110280             0.00874110594            0.000714216156           
       1.112921             0.00983317567            0.000813738914           
       1.115561             0.00938226115            0.000755450145           
       1.118202             0.00884743332            0.000734293577           
       1.120842             0.00752766624            0.000711863375           
       1.123482             0.00866517998            0.000760421306           
       1.126123              0.0084701653             0.00072111728           
       1.128763             0.00932408992            0.000761781963           
       1.131403             0.00888803116            0.000716672213           
       1.134044             0.00937042147            0.000757205479           
       1.136684             0.00870054972             0.00077792078           
       1.139325             0.00997700229            0.000767388807           
       1.141965             0.00931847776            0.000746533898           
       1.144605             0.00820832225            0.000668076645           
       1.147246             0.00829458193            0.000687301803           
       1.149886             0.00938406259            0.000728452462           
       1.152527             0.00837220864             0.00069806493           
       1.155167               0.010548163            0.000745271104           
       1.157807             0.00919631407            0.000746104608           
       1.160448             0.00883323307            0.000714062627           
       1.163088             0.00986863073            0.000719923396           
       1.165728              0.0109689429            0.000779276865           
       1.168369             0.00906778324            0.000715078644           
       1.171009             0.00804724076             0.00065374765           
       1.173650             0.00949915632            0.000728915921           
       1.176290             0.00854965587            0.000675777153           
       1.178930              0.0092771247            0.000689925673           
       1.181571             0.00900322777            0.000693142716           
       1.184211              0.0101932014            0.000740143535           
       1.186851             0.00945393822            0.000696893221           
       1.189492              0.0093799705            0.000689491631           
       1.192132              0.0101099739            0.000707787593           
       1.194773             0.00864869333             0.00065750126           
       1.197413             0.00963967372             0.00066509272           
       1.200053             0.00955766155            0.000679084399           
       1.202694              0.0103867755            0.000673197798           
       1.205334             0.00966291448            0.000699759866           
       1.207975              0.0117634883            0.000736973362           
       1.210615             0.00986370157            0.000744468105           
       1.213255              0.0104996758             0.00068781003           
       1.215896             0.00859115293            0.000633439037           
       1.218536             0.00947839071            0.000639756963           
       1.221176             0.00923446394            0.000686538776           
       1.223817             0.00987288735            0.000666370842           
       1.226457             0.00878557729            0.000641270848           
       1.229098             0.00916488619            0.000654935792           
       1.231738             0.00943776031            0.000667885256           
       1.234378              0.0102308083            0.000653414269           
       1.237019              0.0104145109            0.000679355484           
       1.239659             0.00926840573             0.00063530233           
       1.242299             0.00989612652            0.000648122992           
       1.244940             0.00969982342            0.000624057103           
       1.247580              0.0098153235            0.000646959629           
       1.250221              0.0105462947            0.000666479456           
       1.252861              0.0102903985            0.000626746698           
       1.255501              0.0100057501            0.000671048895           
       1.258142             0.00912928773              0.0006023203           
       1.260782              0.0106923367            0.000665950712           
       1.263423              0.0102255988            0.000625781066           
       1.266063              0.0104478622            0.000648340995           
       1.268703              0.0105768087             0.00064691654           
       1.271344              0.0108541058            0.000677551944           
       1.273984              0.0102149424            0.000634821987           
       1.276624              0.0105737219            0.000633740468           
       1.279265             0.00996254751            0.000625367937           
       1.281905              0.0110033857            0.000660141107           
       1.284546              0.0102436109             0.00061566257           
       1.287186              0.0100265169            0.000597595393           
       1.289826              0.0102017647            0.000635296875           
       1.292467             0.00949454879            0.000599381894           
       1.295107             0.00997462257            0.000608245653           
       1.297747              0.0107993624            0.000605625399           
       1.300388             0.00929864022            0.000612620519           
       1.303028              0.0104143556            0.000618937438           
       1.305669              0.0110595121            0.000653007683           
       1.308309               0.010881866            0.000641363168           
       1.310949              0.0109159478            0.000641721193           
       1.313590              0.0102734097            0.000603088018           
       1.316230              0.0106722414            0.000655952134           
       1.318871             0.00952773467            0.000607000646           
       1.321511              0.0111812089            0.000645376878           
       1.324151              0.0105797384            0.000609167244           
       1.326792              0.0113217563            0.000634063413           
       1.329432              0.0106631869            0.000611003516           
       1.332072              0.0109221643            0.000609163005           
       1.334713              0.0110547318            0.000632520684           
       1.337353              0.0117548121            0.000625512674           
       1.339994              0.0106914192            0.000626018494           
       1.342634              0.0125330853             0.00064996302           
       1.345274               0.010419837             0.00061332551           
       1.347915              0.0106337923            0.000602480448           
       1.350555              0.0109568511            0.000622274605           
       1.353195              0.0115043943            0.000640765164           
       1.355836              0.0114806362            0.000630121981           
       1.358476              0.0105013749            0.000585264071           
       1.361117              0.0108860301            0.000596704429           
       1.363757               0.011580054            0.000634223521           
       1.366397              0.0116207123            0.000616109911           
       1.369038              0.0117877394            0.000626700532           
       1.371678              0.0116041092            0.000616318158           
       1.374319              0.0111486421            0.000598899852           
       1.376959              0.0103597363            0.000571515427           
       1.379599              0.0107049414             0.00062261251           
       1.382240              0.0103528952             0.00057545994           
       1.384880              0.0119104155            0.000653787748           
       1.387520              0.0112791721            0.000604244187           
       1.390161              0.0112511111            0.000573172502           
       1.392801              0.0107240874            0.000583035678           
       1.395442              0.0104203428             0.00058256889           
       1.398082              0.0107880371            0.000555092137           
       1.400722              0.0104684171            0.000572768179           
       1.403363              0.0102127809            0.000595501165           
       1.406003              0.0111427543             0.00058213057           
       1.408644               0.011801276            0.000627580734           
       1.411284              0.0118509467            0.000595512567           
       1.413924              0.0115988448            0.000586960318           
       1.416565               0.011019161            0.000569857566           
       1.419205              0.0110582267            0.000595505183           
       1.421845              0.0108161586            0.000588605397           
       1.424486              0.0119174693            0.000593891339           
       1.427126              0.0119156794             0.00061689192           
       1.429767              0.0117709086            0.000576883595           
       1.432407              0.0104012286            0.000567511209           
       1.435047              0.0112648175            0.000554672398           
       1.437688              0.0105670989            0.000545252618           
       1.440328              0.0113347581            0.000576350635           
       1.442968              0.0104056308            0.000564596344           
       1.445609              0.0116995015            0.000579678632           
       1.448249              0.0120106916            0.000602208339           
       1.450890              0.0103689035            0.000555885391           
       1.453530               0.011767121            0.000619539696           
       1.456170              0.0109052661            0.000578839552           
       1.458811             0.00985894915            0.000526276256           
       1.461451              0.0111667454            0.000561564363           
       1.464092              0.0118781592            0.000582962879           
       1.466732              0.0106869895             0.00054820866           
       1.469372              0.0115881711            0.000557495037           
       1.472013              0.0118527592            0.000608095072           
       1.474653              0.0104375742            0.000561836286           
       1.477293              0.0101128704            0.000564684113           
       1.479934              0.0112202675            0.000567562142           
       1.482574              0.0110330562             0.00054442814           
       1.485215              0.0106088967            0.000543803736           
       1.487855              0.0118586619            0.000582527621           
       1.490495               0.010467173             0.00054526919           
       1.493136              0.0111773406            0.000555739804           
       1.495776              0.0103634345            0.000532687018           
       1.498416              0.0105690346            0.000555545086           
       1.501057               0.010044629            0.000529651676           
       1.503697              0.0115543568            0.000555371918           
       1.506338              0.0102811126            0.000533452224           
       1.508978              0.0106308279             0.00053711452           
       1.511618              0.0105436568            0.000569674262           
       1.514259              0.0103927647            0.000546044103           
       1.516899              0.0110590855            0.000548444778           
       1.519540              0.0101176451            0.000533040825           
       1.522180              0.0104480111            0.000546431795           
       1.524820              0.0109338273            0.000555855359           
       1.527461              0.0112477229            0.000566566095           
       1.530101              0.0113856327            0.000564327984           
       1.532741              0.0101684055            0.000530214639           
       1.535382              0.0113605391            0.000569456669           
       1.538022              0.0109927861             0.00052770403           
       1.540663              0.0107111319            0.000560259921           
       1.543303              0.0108915181            0.000524572622           
       1.545943              0.0103362416            0.000540882966           
       1.548584             0.00958371382            0.000530170559           
       1.551224              0.0102298795             0.00050644846           
       1.553864              0.0106360444            0.000545677912           
       1.556505              0.0104936756            0.000523599094           
       1.559145              0.0100144837            0.000517770254           
       1.561786              0.0106046834            0.000533219488           
       1.564426              0.0104678056            0.000513289156           
       1.567066              0.0104768785            0.000538061512           
       1.569707              0.0102516939            0.000522686853           
       1.572347              0.0102114502            0.000538926855           
       1.574988              0.0093999418            0.000492163213           
       1.577628             0.00963126469            0.000519481222           
       1.580268              0.0100825222            0.000514978183           
       1.582909             0.00942284762            0.000527697324           
       1.585549             0.00927896818             0.00050845039           
       1.588189              0.0102305295             0.00052223285           
       1.590830             0.00941866702              0.0005004543           
       1.593470             0.00942143609            0.000520346704           
       1.596111              0.0102306575            0.000529387955           
       1.598751             0.00982576332            0.000502706138           
       1.601391              0.0101722957            0.000522778947           
       1.604032             0.00951663356             0.00051622101           
       1.606672             0.00903818715            0.000488787296           
       1.609312             0.00969471235            0.000528443493           
       1.611953             0.00863148712            0.000487935481           
       1.614593             0.00960945089            0.000505013302           
       1.617234             0.00884630555             0.00050217161           
       1.619874             0.00923545716            0.000511071209           
       1.622514             0.00959016323            0.000513688709           
       1.625155             0.00945939517            0.000513188303           
       1.627795             0.00896090131            0.000487244996           
       1.630436             0.00896249127            0.000484743763           
       1.633076             0.00947190613            0.000504865236           
       1.635716             0.00891262028             0.00048211329           
       1.638357             0.00939043815            0.000496172348           
       1.640997             0.00933297806            0.000509635991           
       1.643637             0.00961179197            0.000503286518           
       1.646278             0.00886178091            0.000498435778           
       1.648918             0.00877546509            0.000497355462           
       1.651559             0.00883903642            0.000503027856           
       1.654199              0.0092408187            0.000500234492           
       1.656839              0.0105493473            0.000534666256           
       1.659480             0.00893409124            0.000510510864           
       1.662120             0.00914477773            0.000486453487           
       1.664761             0.00902669624            0.000502026683           
       1.667401             0.00887025112            0.000475653784           
       1.670041             0.00877160058              0.0004802136           
       1.672682             0.00927584342            0.000491793781           
       1.675322              0.0080535159            0.000455299683           
       1.677962             0.00888450721            0.000472937568           
       1.680603             0.00823400571            0.000456695891           
       1.683243             0.00937302635            0.000508365734           
       1.685884              0.0085295879            0.000488535018           
       1.688524             0.00831980894             0.00047316344           
       1.691164               0.008997231            0.000492161346           
       1.693805             0.00847970623            0.000483045846           
       1.696445             0.00918095599            0.000505538041           
       1.699085             0.00881434913            0.000478743868           
       1.701726             0.00798188795            0.000438868024           
       1.704366             0.00895468954            0.000489699467           
       1.707007             0.00980574994            0.000501019177           
       1.709647             0.00903624002            0.000486390248           
       1.712287              0.0085831427            0.000478165232           
       1.714928             0.00867710682            0.000484651766           
       1.717568             0.00871584609            0.000457561881           
       1.720209             0.00830585355            0.000467856285           
       1.722849             0.00958217916            0.000499935487           
       1.725489              0.0093877065            0.000495251835           
       1.728130             0.00878857195            0.000509242052           
       1.730770             0.00938078879            0.000499672569           
       1.733410             0.00825738262            0.000461430313           
       1.736051             0.00894126769            0.000483500449           
       1.738691             0.00900437433            0.000475367992           
       1.741332             0.00821385921            0.000467297788           
       1.743972             0.00864660854            0.000495113173           
       1.746612             0.00877549499            0.000478965179           
       1.749253             0.00793042271            0.000464311377           
       1.751893             0.00820018216            0.000468676686           
       1.754533             0.00827953334            0.000470499061           
       1.757174             0.00852913221            0.000473066447           
       1.759814             0.00779680976            0.000445445655           
       1.762455             0.00909834238            0.000490026572           
       1.765095             0.00902641699            0.000466913426           
       1.767735             0.00850237776             0.00046713707           
       1.770376             0.00822512016            0.000460668666           
       1.773016             0.00905347609            0.000480072046           
       1.775657             0.00917346846            0.000476289742           
       1.778297             0.00969467181            0.000485417188           
       1.780937             0.00856713435            0.000481642133           
       1.783578             0.00883189789            0.000476800202           
       1.786218             0.00888005919            0.000498948046           
       1.788858             0.00826985804            0.000457308957           
       1.791499             0.00843494039            0.000456663777           
       1.794139             0.00829478296            0.000449179767           
       1.796780             0.00922556671            0.000471428076           
       1.799420             0.00834899266            0.000445989112           
       1.802060             0.00980718912            0.000487274098           
       1.804701             0.00889850593            0.000445420736           
       1.807341             0.00885854525             0.00046698821           
       1.809981              0.0088243579            0.000467640177           
       1.812622             0.00891477365            0.000461567767           
       1.815262             0.00892310235             0.00047159267           
       1.817903             0.00922300881            0.000472348332           
       1.820543             0.00900773241            0.000474077034           
       1.823183             0.00936935707            0.000483233746           
       1.825824             0.00940175612            0.000462459466           
       1.828464             0.00969064453            0.000489485227           
       1.831105              0.0090310041            0.000459467555           
       1.833745             0.00824161068            0.000448301749           
       1.836385             0.00901309111            0.000482193993           
       1.839026             0.00866753682            0.000471366224           
       1.841666             0.00905330212            0.000480033343           
       1.844306             0.00850098966            0.000452468173           
       1.846947              0.0083990117            0.000453688433           
       1.849587             0.00890538106            0.000515862899           
       1.852228             0.00781609048            0.000437008914           
       1.854868             0.00918719041            0.000500490187           
       1.857508              0.0081987485            0.000468163389           
       1.860149             0.00862224048            0.000488825011           
       1.862789             0.00780137277            0.000448807647           
       1.865429             0.00838127223            0.000485586444           
       1.868070             0.00862350062            0.000485988593           
       1.870710             0.00870055321            0.000476900755           
       1.873351             0.00831288482             0.00047191786           
       1.875991             0.00868636294            0.000490275373           
       1.878631             0.00855693853            0.000477289541           
       1.881272             0.00828850146            0.000466596024           
       1.883912             0.00850233732            0.000491814764           
       1.886553             0.00876817693            0.000493860491           
       1.889193             0.00847761763            0.000484779053           
       1.891833             0.00838914202            0.000500827902           
       1.894474             0.00811352551            0.000488242647           
       1.897114             0.00883285239            0.000492961234           
       1.899754             0.00788069154            0.000467581994           
       1.902395             0.00844466933            0.000474560797           
       1.905035             0.00818472645            0.000494842859           
       1.907676             0.00809476316            0.000463820577           
       1.910316             0.00933069917            0.000511194134           
       1.912956             0.00899984412            0.000491004037           
       1.915597             0.00883967872            0.000489334982           
       1.918237             0.00870391017            0.000501468014           
       1.920878              0.0079570785             0.00047750878           
       1.923518             0.00892147006            0.000505832793           
       1.926158             0.00860492473            0.000490331516           
       1.928799             0.00853487334            0.000482679007           
       1.931439             0.00832137432            0.000489104517           
       1.934079              0.0091230801            0.000533876375           
       1.936720             0.00842000841            0.000475209661           
       1.939360             0.00826322465             0.00050224016           
       1.942001               0.007609494            0.000441744645           
       1.944641             0.00834790771            0.000471795384           
       1.947281             0.00808251957            0.000459956307           
       1.949922             0.00866002065            0.000491774258           
       1.952562             0.00842973034            0.000500400112           
       1.955202             0.00902596005            0.000517163121           
       1.957843             0.00783007051            0.000469194124           
       1.960483             0.00872363127            0.000517775931           
       1.963124             0.00744872606            0.000468631861           
       1.965764             0.00772924508            0.000450177664           
       1.968404              0.0083827095            0.000464391991           
       1.971045             0.00885657092            0.000486670413           
       1.973685             0.00803317377            0.000486172404           
       1.976326             0.00748850397            0.000462949941           
       1.978966             0.00801622177            0.000483187888           
       1.981606             0.00809856418            0.000495792012           
       1.984247             0.00823962799            0.000496803459           
       1.986887             0.00774140612            0.000475780876           
       1.989527             0.00728707613            0.000456637169           
       1.992168             0.00822624637            0.000503406759           
       1.994808             0.00756459146            0.000480668083           
       1.997449             0.00749034076            0.000468480565           
       2.000089             0.00782231554             0.00047685155           
       2.002729             0.00779305825            0.000476244298           
       2.005370             0.00814379536            0.000481605078           
       2.008010               0.007661901            0.000487526252           
       2.010650             0.00774382927            0.000493783104           
       2.013291             0.00832065264            0.000491085332           
       2.015931             0.00838991213            0.000489639098           
       2.018572             0.00757310026            0.000497569125           
       2.021212             0.00781571783            0.000496394785           
       2.023852             0.00784535582            0.000470704229           
       2.026493              0.0085092276            0.000512117081           
       2.029133             0.00798819756            0.000486205306           
       2.031774             0.00815867307            0.000515677649           
       2.034414             0.00761711671            0.000458476677           
       2.037054              0.0077767427             0.00047499775           
       2.039695             0.00742054722            0.000460487843           
       2.042335             0.00725289153            0.000473111053           
       2.044975             0.00776688021            0.000483650684           
       2.047616             0.00778519426             0.00048301773           
       2.050256             0.00813716305            0.000498488912           
       2.052897             0.00813870538            0.000507726955           
       2.055537             0.00789168009            0.000483194595           
       2.058177             0.00796519651            0.000475376681           
       2.060818             0.00680327476            0.000460240439           
       2.063458             0.00749828439            0.000503518975           
       2.066098              0.0075518022            0.000476679123           
       2.068739             0.00766005525            0.000487545912           
       2.071379              0.0077054487            0.000501741349           
       2.074020             0.00834648485            0.000510846275           
       2.076660             0.00748986837            0.000487834174           
       2.079300             0.00796282318            0.000515325316           
       2.081941             0.00788935245            0.000469657225           
       2.084581             0.00659348442            0.000453189746           
       2.087222             0.00715574066            0.000455311975           
       2.089862             0.00741600907            0.000504842176           
       2.092502             0.00739713739            0.000488749364           
       2.095143             0.00782516572            0.000519103671           
       2.097783             0.00736172705            0.000487470177           
       2.100423             0.00722355217            0.000465293311           
       2.103064             0.00725697206            0.000483919901           
       2.105704             0.00769280905             0.00049577168           
       2.108345             0.00776050014             0.00047839499           
       2.110985             0.00768484908            0.000508463891           
       2.113625             0.00794887096            0.000521637227           
       2.116266             0.00786019447            0.000526078816           
       2.118906             0.00804503422            0.000496007132           
       2.121546             0.00675444697            0.000445806782           
       2.124187             0.00808810916             0.00051207882           
       2.126827             0.00758774513            0.000501521874           
       2.129468             0.00730625684            0.000493388359           
       2.132108             0.00833435968            0.000512691861           
       2.134748             0.00790595415            0.000497403921           
       2.137389             0.00838061025            0.000534266083           
       2.140029              0.0080689201            0.000469328764           
       2.142670             0.00810397103            0.000502670003           
       2.145310             0.00762157871            0.000474472686           
       2.147950             0.00772751693            0.000491744039           
       2.150591             0.00724586114            0.000471360069           
       2.153231             0.00761576207            0.000497422275           
       2.155871             0.00803971699            0.000493737314           
       2.158512             0.00762953277            0.000501865661           
       2.161152             0.00781312824            0.000491952786           
       2.163793             0.00715644489              0.0004687055           
       2.166433              0.0082236351            0.000515951871           
       2.169073             0.00768899639             0.00048779122           
       2.171714             0.00731458891            0.000472210194           
       2.174354             0.00681395562            0.000476231312           
       2.176995             0.00789639966            0.000510506875           
       2.179635             0.00697295045             0.00050693616           
       2.182275             0.00778187509            0.000505629143           
       2.184916             0.00739215664            0.000475986111           
       2.187556             0.00754110639            0.000475939121           
       2.190196             0.00699250989            0.000478917942           
       2.192837             0.00687550499            0.000472310385           
       2.195477              0.0073367657            0.000465151167           
       2.198118             0.00729835024            0.000475819372           
       2.200758             0.00791467525            0.000508356038           
       2.203398             0.00708046872            0.000483895882           
       2.206039             0.00725689239            0.000463636944           
       2.208679             0.00757700076            0.000484777864           
       2.211319             0.00764976657            0.000489908701           
       2.213960             0.00725515239            0.000483497814           
       2.216600              0.0083164007            0.000535500748           
       2.219241              0.0070653817            0.000471731974           
       2.221881             0.00705915881            0.000472493669           
       2.224521             0.00810217056            0.000512400618           
       2.227162             0.00750391874             0.00048324703           
       2.229802             0.00646150378            0.000462464739           
       2.232443             0.00740523241            0.000487277643           
       2.235083             0.00751124339            0.000505228981           
       2.237723             0.00651419004            0.000451516097           
       2.240364             0.00779023655            0.000505926993           
       2.243004              0.0086039873            0.000527450537           
       2.245644             0.00740225893            0.000494127955           
       2.248285             0.00713143178            0.000475288299           
       2.250925             0.00760874722            0.000493918758           
       2.253566             0.00751237163            0.000524682137           
       2.256206             0.00721975613            0.000504077451           
       2.258846             0.00796495083            0.000503656423           
       2.261487             0.00731371662            0.000506562131           
       2.264127              0.0076599014            0.000500674335           
       2.266767             0.00758950069            0.000511646117           
       2.269408             0.00735591587            0.000505773733           
       2.272048             0.00728544226            0.000500340581           
       2.274689             0.00765557855            0.000519651052           
       2.277329             0.00678557852            0.000460644928           
       2.279969             0.00723290179             0.00050623415           
       2.282610             0.00726535289            0.000493257211           
       2.285250             0.00693198059            0.000461155461           
       2.287891             0.00790487173            0.000527985567           
       2.290531             0.00699047836            0.000503184528           
       2.293171             0.00732300204            0.000501669483           
       2.295812             0.00761520698            0.000509524096           
       2.298452             0.00731287218            0.000522142682           
       2.301092             0.00764209769            0.000495934875           
       2.303733             0.00693059877            0.000491340913           
       2.306373             0.00748622004            0.000518698552           
       2.309014             0.00734879406            0.000503890242           
       2.311654             0.00692811295            0.000510560949           
       2.314294              0.0068790244            0.000468712299           
       2.316935             0.00742243445             0.00048888495           
       2.319575              0.0073252334            0.000508873193           
       2.322215             0.00679225717            0.000510674267           
       2.324856             0.00760295834            0.000496742098           
       2.327496             0.00652523534            0.000489327124           
       2.330137             0.00688427029            0.000480959097           
       2.332777             0.00689677216            0.000496370199           
       2.335417             0.00696120995            0.000483797699           
       2.338058             0.00778110139            0.000526775175           
       2.340698              0.0076528802            0.000518311537           
       2.343339             0.00737845593            0.000520133204           
       2.345979             0.00722456704            0.000486928728           
       2.348619             0.00730074672            0.000507381796           
       2.351260             0.00654187182            0.000477490297           
       2.353900             0.00738359988            0.000505672894           
       2.356540             0.00683678219             0.00048589736           
       2.359181             0.00745863017            0.000500399113           
       2.361821             0.00724139715            0.000476281072           
       2.364462             0.00744752925            0.000505170498           
       2.367102             0.00873637592            0.000562272656           
       2.369742             0.00762133265            0.000552773696           
       2.372383             0.00733655112            0.000491094597           
       2.375023             0.00712912596             0.00050889663           
       2.377663             0.00684377604            0.000476742552           
       2.380304              0.0074507294            0.000505728059           
       2.382944             0.00735265291            0.000478509142           
       2.385585             0.00691246091            0.000494825906           
       2.388225             0.00737216465            0.000508613704           
       2.390865             0.00649209593            0.000472387899           
       2.393506             0.00837217737            0.000526324711           
       2.396146             0.00754999279            0.000540420705           
       2.398787             0.00679389464            0.000472443661           
       2.401427             0.00685485309            0.000458058297           
       2.404067             0.00777948737            0.000498859109           
       2.406708             0.00674832604            0.000459051139           
       2.409348             0.00730776561            0.000506694422           
       2.411988             0.00660229996            0.000471877723           
       2.414629             0.00623651764            0.000472903119           
       2.417269             0.00661131721            0.000492590729           
       2.419910             0.00720029068            0.000515256932           
       2.422550             0.00732092419             0.00049707848           
       2.425190             0.00735743907             0.00052527772           
       2.427831             0.00719586049            0.000516557655           
       2.430471             0.00687423618            0.000480997377           
       2.433112             0.00689486052            0.000469078886           
       2.435752             0.00628774834            0.000474072239           
       2.438392             0.00658886481            0.000468404993           
       2.441033             0.00640441187            0.000489417335           
       2.443673             0.00736445425            0.000525223022           
       2.446313              0.0063754593            0.000489116095           
       2.448954             0.00650020788            0.000470241064           
       2.451594             0.00723001004               0.000533248           
       2.454235             0.00769050021            0.000516009994           
       2.456875              0.0071520002             0.00052068498           
       2.459515             0.00653619507            0.000510650151           
       2.462156             0.00811932993            0.000537349834           
       2.464796              0.0088408259            0.000553482467           
       2.467436             0.00743992131            0.000525063085           
       2.470077             0.00767470824            0.000505456087           
       2.472717             0.00839393909            0.000530899858           
       2.475358             0.00793223724            0.000521473832           
       2.477998             0.00798805269             0.00051448312           
       2.480638             0.00743424537            0.000505147682           
       2.483279             0.00689668016            0.000508513513           
       2.485919             0.00710420046            0.000497387449           
       2.488560              0.0077217192            0.000517105356           
       2.491200             0.00778781107            0.000534755816           
       2.493840             0.00809417607            0.000576864158           
       2.496481              0.0076691922            0.000552330707           
       2.499121              0.0077396418            0.000539691693           
       2.501761             0.00679162494            0.000512257764           
       2.504402             0.00652691283            0.000494838845           
       2.507042             0.00623710039            0.000480144599           
       2.509683             0.00747854834            0.000517726683           
       2.512323              0.0082163738            0.000569933302           
       2.514963             0.00723282596            0.000528127827           
       2.517604             0.00730268496            0.000550654005           
       2.520244              0.0067524674            0.000496410422           
       2.522884             0.00788514764            0.000544103335           
       2.525525             0.00737437298            0.000532157989           
       2.528165              0.0085063301            0.000562634279           
       2.530806             0.00847183908            0.000571279397           
       2.533446              0.0115056901            0.000651547321           
       2.536086             0.00815460782             0.00054360891           
       2.538727              0.0070020208            0.000483251152           
       2.541367             0.00607466822            0.000454547795           
       2.544008             0.00702723797            0.000504903389           
       2.546648             0.00765918956            0.000536158896           
       2.549288             0.00738724019            0.000537283349           
       2.551929             0.00729615234             0.00052544919           
       2.554569             0.00684059585            0.000490167754           
       2.557209             0.00715255872            0.000505823203           
       2.559850             0.00667924989            0.000490370407           
       2.562490             0.00787672401             0.00055038459           
       2.565131             0.00695222529            0.000536128901           
       2.567771             0.00692383537             0.00051585226           
       2.570411             0.00715218281            0.000518616894           
       2.573052             0.00663026458            0.000505624334           
       2.575692             0.00594223936            0.000475772948           
       2.578332             0.00683987071            0.000512555427           
       2.580973             0.00689282009            0.000509639884           
       2.583613             0.00869162321            0.000558662241           
       2.586254              0.0070247324            0.000501544856           
       2.588894             0.00776090166            0.000547441248           
       2.591534             0.00741535223            0.000553944686           
       2.594175             0.00676899901            0.000519264995           
       2.596815             0.00662056918            0.000516568207           
       2.599456              0.0064459002            0.000483354117           
       2.602096             0.00753722937            0.000526650022           
       2.604736             0.00639774732            0.000496715435           
       2.607377             0.00708945821            0.000509098771           
       2.610017             0.00655267931             0.00048088109           
       2.612657             0.00646361405            0.000508001526           
       2.615298             0.00700789286            0.000516429228           
       2.617938             0.00670945505            0.000540556071           
       2.620579             0.00753245869            0.000549834716           
       2.623219             0.00661343512            0.000514467339           
       2.625859             0.00688208711            0.000510265158           
       2.628500             0.00694853026            0.000509361728           
       2.631140             0.00734737579            0.000531846944           
       2.633780             0.00758099033            0.000539766351           
       2.636421             0.00664777126            0.000517883165           
       2.639061             0.00811201804            0.000538549361           
       2.641702             0.00754823425            0.000531524535           
       2.644342             0.00702370079            0.000514908686           
       2.646982             0.00724816083            0.000515251785           
       2.649623             0.00792074905             0.00056446025           
       2.652263             0.00709031725             0.00052869223           
       2.654904             0.00692384508            0.000522974436           
       2.657544             0.00682930195            0.000489213041           
       2.660184             0.00671142617            0.000513242323           
       2.662825             0.00714370095            0.000541797689           
       2.665465             0.00822912001            0.000562409509           
       2.668105             0.00711739744            0.000551306321           
       2.670746             0.00812125889            0.000544021131           
       2.673386             0.00792804291            0.000553947834           
       2.676027             0.00868725764             0.00057055901           
       2.678667             0.00944111264            0.000580375904           
       2.681307              0.0111428368              0.0006195172           
       2.683948              0.0154517395            0.000749560014           
       2.686588              0.0105559097            0.000609260473           
       2.689229             0.00986563358            0.000575549579           
       2.691869              0.0101510034            0.000617033673           
       2.694509             0.00890618178            0.000578280743           
       2.697150              0.0074864086            0.000521586015           
       2.699790             0.00873375127            0.000590606893           
       2.702430              0.0069639525            0.000504114607           
       2.705071              0.0072717477            0.000532294465           
       2.707711             0.00735101941            0.000519440021           
       2.710352             0.00610509384            0.000500182787           
       2.712992             0.00628335001            0.000516814841           
       2.715632             0.00732118124            0.000517589012           
       2.718273              0.0075470204            0.000544621952           
       2.720913             0.00765182416            0.000546830086           
       2.723553             0.00689785518            0.000522674266           
       2.726194             0.00735189807            0.000564062304           
       2.728834             0.00671604142            0.000539371172           
       2.731475             0.00895280657            0.000574739558           
       2.734115             0.00673565909            0.000513990542           
       2.736755             0.00701941809            0.000529024268           
       2.739396             0.00736034929            0.000538580591           
       2.742036             0.00777043657            0.000579148289           
       2.744677             0.00743239658             0.00054957459           
       2.747317             0.00612387854            0.000495299122           
       2.749957             0.00690330346            0.000529565783           
       2.752598             0.00854638765            0.000595621738           
       2.755238             0.00820801662             0.00059424896           
       2.757878             0.00693368703            0.000541399183           
       2.760519             0.00826838204            0.000584946617           
       2.763159             0.00874129905            0.000595431923           
       2.765800             0.00806565901            0.000545066946           
       2.768440             0.00653218251            0.000494136283           
       2.771080             0.00896564153            0.000583738488           
       2.773721             0.00739826025            0.000543943182           
       2.776361             0.00813357259            0.000578202517           
       2.779001             0.00751350523            0.000575510428           
       2.781642             0.00680723869            0.000543757176           
       2.784282             0.00640627284            0.000536173888           
       2.786923             0.00735432226            0.000579537319           
       2.789563             0.00735836746            0.000558315992           
       2.792203             0.00679103262            0.000512377975           
       2.794844             0.00770398044            0.000598114336           
       2.797484             0.00697481665            0.000537097042           
       2.800125             0.00741094687            0.000582146962           
       2.802765             0.00736343221            0.000570295028           
       2.805405             0.00683970292            0.000551499971           
       2.808046             0.00717483002            0.000574779199           
       2.810686             0.00699115897            0.000521351197           
       2.813326             0.00692353641            0.000538914599           
       2.815967             0.00633786404            0.000530277711           
       2.818607             0.00742603165            0.000547751362           
       2.821248              0.0075852763            0.000542100116           
       2.823888             0.00621183238            0.000509227231           
       2.826528             0.00612916538            0.000489868928           
       2.829169             0.00711921315            0.000553001124           
       2.831809             0.00631004238            0.000527708013           
       2.834449              0.0068748294            0.000554299506           
       2.837090             0.00753880004            0.000560622416           
       2.839730             0.00701441908            0.000538132958           
       2.842371             0.00753078957            0.000558393476           
       2.845011             0.00862480681            0.000602341519           
       2.847651             0.00718122571            0.000550301191           
       2.850292             0.00674450699            0.000538539688           
       2.852932             0.00604828065            0.000521100687           
       2.855573             0.00650462351            0.000524204952           
       2.858213             0.00670938491               0.000559076           
       2.860853             0.00770230388            0.000557224288           
       2.863494             0.00685861999            0.000544414478           
       2.866134             0.00765147166            0.000597663159           
       2.868774              0.0066745037            0.000548600799           
       2.871415              0.0067349548            0.000559663408           
       2.874055             0.00721688546            0.000553778227           
       2.876696             0.00712596101            0.000565162951           
       2.879336             0.00751011254            0.000559197981           
       2.881976             0.00704255708            0.000558531621           
       2.884617             0.00750764347            0.000568209933           
       2.887257             0.00699124628             0.00055115046           
       2.889897             0.00620687914            0.000508625405           
       2.892538             0.00780060042            0.000624653601           
       2.895178              0.0071097249            0.000538762993           
       2.897819             0.00696443428            0.000543945188           
       2.900459             0.00702530253            0.000535689429           
       2.903099                0.00724372             0.00053838504           
       2.905740             0.00653063933            0.000524424863           
       2.908380              0.0071068261            0.000553286453           
       2.911021             0.00711169344            0.000562474513           
       2.913661             0.00666941801            0.000544540483           
       2.916301             0.00712956801            0.000563549118           
       2.918942             0.00745981065             0.00055139168           
       2.921582             0.00705186497            0.000560918268           
       2.924222             0.00661063731            0.000526146669           
       2.926863             0.00805777447            0.000605062331           
       2.929503             0.00734781538             0.00058463756           
       2.932144              0.0076736669            0.000573525369           
       2.934784             0.00630547169            0.000511363513           
       2.937424             0.00554226425            0.000484340342           
       2.940065              0.0072932726            0.000529997249           
       2.942705              0.0069113904            0.000515287849           
       2.945346             0.00745482116            0.000567943021           
       2.947986             0.00611836411            0.000524634218           
       2.950626             0.00703196232            0.000559274577           
       2.953267             0.00731366718            0.000561151417           
       2.955907             0.00606380876            0.000530048718           
       2.958547             0.00597834578            0.000496854414           
       2.961188             0.00773345709            0.000589557312           
       2.963828             0.00778903428            0.000578764566           
       2.966469             0.00675346999            0.000528677817           
       2.969109              0.0071193901            0.000550854026           
       2.971749             0.00664715443            0.000528950769           
       2.974390             0.00724942016            0.000542828257           
       2.977030             0.00804116171            0.000584479192           
       2.979670             0.00782296654            0.000560752192           
       2.982311              0.0100171137            0.000657665058           
       2.984951             0.00746781277            0.000540071014           
       2.987592             0.00788822073            0.000566182287           
       2.990232             0.00685625894              0.0005489581           
       2.992872             0.00793211653            0.000556179506           
       2.995513             0.00840526744            0.000560120157           
       2.998153              0.0106827416            0.000642070736           
       3.000794              0.0114137742            0.000642838445           
       3.003434              0.0116323133            0.000649943322           
       3.006074              0.0425846275             0.00122613635           
       3.008715               0.121074835             0.00199575716           
       3.011355               0.198309664             0.00246306137           
       3.013995               0.105688781             0.00180300836           
       3.016636              0.0663421549             0.00139883299           
       3.019276               0.129954312             0.00192446915           
       3.021917               0.486602076             0.00358074814           
       3.024557                1.56446513             0.00631247569           
       3.027197                1.14000792             0.00525353801           
       3.029838               0.535030329             0.00365009479           
       3.032478               0.264402019              0.0025685539           
       3.035118               0.069006443             0.00132980789           
       3.037759               0.090247791             0.00151880382           
       3.040399                0.12596621             0.00185093077           
       3.043040                0.51115151             0.00377423479           
       3.045680               0.398047422             0.00313361512           
       3.048320              0.0930359785             0.00154792843           
       3.050961               0.109640239             0.00171000009           
       3.053601              0.0877352838              0.0014732595           
       3.056242              0.0617823732             0.00131445117           
       3.058882              0.0573601903             0.00135861679           
       3.061522              0.0419844419             0.00114040118           
       3.064163              0.0529845444             0.00126498255           
       3.066803               0.117887203             0.00198647369           
       3.069443                0.11342208              0.0020386202           
       3.072084              0.0439931447             0.00123628885           
       3.074724              0.0372638729             0.00127067891           
       3.077365              0.0809741987             0.00193900417           
       3.080005              0.0133171037            0.000790795669           
       3.082645              0.0128909024            0.000817347557           
       3.085286              0.0140445311            0.000859867865           
       3.087926              0.0095451566            0.000703411531           
       3.090566              0.0109722464             0.00073893505           
       3.093207               0.011311528            0.000780736356           
       3.095847              0.0079992117            0.000629292463           
       3.098488             0.00717593413            0.000660895315           
       3.101128             0.00998531146             0.00078461806           
       3.103768              0.0101976922            0.000778000698           
       3.106409             0.00867266647            0.000763583906           
       3.109049             0.00903402996            0.000747884084           
       3.111690             0.00849574674            0.000712810515           
       3.114330             0.00713831144            0.000667287576           
       3.116970             0.00829532146            0.000724858617           
       3.119611              0.0126343542            0.000952208325           
       3.122251              0.0181799254             0.00119480525           
       3.124891              0.0336482815             0.00164062423           
       3.127532               0.024027312             0.00135627691           
       3.130172              0.0134711894             0.00103309199           
       3.132813              0.0103156492            0.000889989351           
       3.135453             0.00720425685            0.000737630624           
       3.138093             0.00565690549            0.000708234216           
       3.140734             0.00739909785            0.000747273266           
       3.143374             0.00751197457            0.000796279342           
       3.146014             0.00692819955            0.000823248634           
       3.148655             0.00675614461            0.000755723539           
       3.151295             0.00477613407            0.000677125077           
       3.153936              0.0062745036            0.000749693763           
       3.156576             0.00557479671            0.000697045127           
       3.159216             0.00509342253            0.000669604046           
       3.161857             0.00695822426            0.000779455522           
       3.164497              0.0077070875            0.000861927833           
       3.167138             0.00914804189            0.000970270326           
       3.169778             0.00574051134            0.000755931008           
       3.172418             0.00506445428             0.00070280218           
       3.175059             0.00674159489            0.000718865393           
       3.177699             0.00709464905            0.000780913373           
       3.180339             0.00651105168            0.000801537265           
       3.182980             0.00580235406            0.000782308624           
       3.185620             0.00733149953            0.000895565064           
       3.188261             0.00736143466            0.000913405822           
       3.190901             0.00726834161            0.000834739588           
       3.193541             0.00709394475            0.000866523399           
       3.196182             0.00505649323             0.00076241005           
       3.198822             0.00677175095            0.000882591878           
       3.201463             0.00655459589            0.000853365165           
       3.204103             0.00780487545            0.000925538669           
       3.206743             0.00503801436            0.000743533457           
       3.209384             0.00613290766            0.000886328019           
       3.212024             0.00602539969            0.000819060971           
       3.214664              0.0050387612            0.000851726328           
       3.217305             0.00593056019            0.000878354278           
       3.219945             0.00483520443            0.000816307112           
       3.222586             0.00536866842            0.000819288502           
       3.225226             0.00770933543             0.00108912661           
       3.227866             0.00617173123            0.000890665897           
       3.230507             0.00606490076            0.000915246829           
       3.233147             0.00492610884            0.000831517067           
       3.235787             0.00733128933              0.0010381119           
       3.238428             0.00617442208             0.00102807435           
       3.241068             0.00505538827            0.000869837878           
       3.243709             0.00415348466            0.000814581382           
       3.246349             0.00464204325            0.000785025673           
       3.248989             0.00647087026             0.00109440638           
       3.251630             0.00582660786              0.0010000441           
       3.254270             0.00588591578             0.00089830548           
       3.256911             0.00751687814             0.00110765549           
       3.259551             0.00586401464              0.0010532549           
       3.262191             0.00768538156             0.00123164576           
       3.264832             0.00450074638             0.00098480307           
       3.267472              0.0058542561             0.00105364813           
       3.270112              0.0053069353             0.00110864882           
       3.272753             0.00464452443            0.000949330671           
       3.275393             0.00484657828            0.000989493573           
       3.278034             0.00403357688            0.000903202169           
       3.280674             0.00833128342             0.00140857854           
       3.283314             0.00571236097             0.00104313988           
       3.285955             0.00466217237            0.000972335579           
       3.288595             0.00883460705             0.00148912197           
       3.291235             0.00660637694             0.00132375565           
       3.293876             0.00462455848             0.00112346009           
       3.296516             0.00325564665            0.000904945707           
       3.299157             0.00564222149             0.00117635231           
       3.301797              0.0073419781             0.00153068048           
       3.304437             0.00574806299             0.00117340421           
       3.307078             0.00637806763             0.00136157081           
       3.309718             0.00620206683             0.00138585946           
       3.312359              0.0080734637             0.00158155418           
       3.314999             0.00568948681             0.00130720137           
       3.317639             0.00523085896              0.0011987307           
       3.320280             0.00803607475             0.00157970022           
       3.322920             0.00415652617             0.00115522537           
       3.325560             0.00573548476             0.00135794279           
       3.328201             0.00596172471             0.00124687871           
       3.330841             0.00619124233              0.0015464648           
       3.333482             0.00759305323             0.00161881292           
       3.336122             0.00618615933             0.00146183575           
       3.338762             0.00504674293             0.00152522473           
       3.341403             0.00542731153             0.00151136548           
       3.344043             0.00583321311             0.00150431777           
       3.346683             0.00483696393              0.0013985022           
       3.349324             0.00406663359              0.0014417424           
       3.351964             0.00798349462              0.0021361499           
       3.354605             0.00673145598             0.00224328227           
       3.357245             0.00239837234             0.00120794033           
       3.359885             0.00586671072              0.0015120637           
       3.362526             0.00601286841             0.00191430808           
       3.365166             0.00591405464             0.00179066556           
       3.367807             0.00712050038             0.00251459516           
       3.370447             0.00736861391             0.00212192165           
       3.373087             0.00484396846             0.00183977347           
       3.375728             0.00532786147             0.00217760643           
       3.378368             0.00573179721             0.00335210979           
       3.381008             0.00435802702             0.00217919414           
       3.383649             0.00900490968              0.0025128994           
       3.386289             0.00884421753             0.00294744474           
       3.388930              0.0148554967             0.00604230811           
       3.391570             0.00612532506             0.00274464599           
       3.394210             0.00194468794             0.00195711658           
       3.396851             0.00487809928             0.00346729544           
       3.399491             0.00240011024             0.00243278213           
       3.402131             0.00963014365             0.00689446377           
       3.404772           -2.63823937e-05                         0           
       3.407412                       nan                       nan           
       3.410053             0.00924159754             0.00956558625           
       3.412693                       nan                       nan           
       3.415333           -2.64979141e-05                         0           
