################################################################################
# EDF_DataBlockID                     0.Image.Psd
# EDF_BinarySize                      4366944
# EDF_HeaderSize                      2560
# ByteOrder                           LowByteFirst
# DataType                            FloatValue
# Dim_1                               1028
# Dim_2                               1062
# Image                               0
# HeaderID                            EH:000000:000000:000000
# Size                                4366944
# Center_1                            607.5200
# Center_2                            651.5500
# Comment                             Xenocs_Cell_Window - 20251028_20perc_iodine_1.23mg
# DDummy                              0.6
# Date                                2025-10-31T03:18:15
# Delta                               0
# Dummy                               -1.5
# ExposureTime                        360
# Gamma                               0
# Intensity1                          8.57811e-10
# PSize_1                             7.5e-05
# PSize_2                             7.5e-05
# Pressure                            0.0328026
# SampleDistance                      0.450002
# SampleEnvKind                       large
# SampleEnvPN                         ElectroChemical cell
# SampleEnvSN                         1141
# Thickness                           0
# Wavelength                          1.541891e-10
# Wavelength                          1.54189e-10
# aux                                 0
# aux_dial                            0.002375
# beamx                               588.434
# beamx_dial                          588.434
# beamz                               657.808
# beamz_dial                          657.808
# det0x                               0
# det0x_dial                          6.36945
# det0xvd                             0
# det0xvd_dial                        0
# det0y                               450.002
# det0y_dial                          481.635
# det0z                               0
# det0z_dial                          1.23302
# det0zvd                             0
# det0zvd_dial                        0
# mag                                 1.818
# mag_dial                            1.818
# om                                  0.2499
# om_dial                             -0.610199
# phi                                 -0.0120535
# phi_dial                            0
# ry                                  0.599993
# ry_dial                             0.599993
# s1bot                               0.8
# s1bot_dial                          -1.66094
# s1hl                                0.8
# s1hl_dial                           -0.608437
# s1hr                                0.8
# s1hr_dial                           0.970938
# s1top                               0.8
# s1top_dial                          -0.461562
# s2bot                               0.45
# s2bot_dial                          1.36109
# s2hl                                0.45
# s2hl_dial                           -0.83375
# s2hr                                0.45
# s2hr_dial                           -0.118594
# s2top                               0.45
# s2top_dial                          1.44734
# w2theta                             32
# w2theta_dial                        32
# waxsch                              19.2605
# waxsch_dial                         -32.7355
# waxsh                               137.085
# waxsh_dial                          -43.5338
# waxsth                              26.0607
# waxsth_dial                         -19.4086
# waxsz                               67.0407
# waxsz_dial                          -23.7954
# wind                                65.9854
# wind_dial                           66.0041
# wpsi                                124
# wpsi_dial                           124
# wstod                               115
# wstod_dial                          115
# x                                   0
# x_dial                              1.00969
# z                                   0
# z_dial                              13.3172
# CountCutoff                         15302352
# DetectorModel                       Dectris EIGER2 Si 1M, S/N E-02-0362
# ThresholdSetting                    4023.88989258
# Saturation                          0
# FlatField                           Corrected
# BackgroundReductionExtra            0.02
# BackgroundCorrectionConstant        0.0026712
# Detector                            0
# Monitor                             0
# Pil_Roi0                            0
# SumForIntensity1                    3.08812e+08
# TransmittedFlux                     857811
# det                                 0
# mon                                 0
# pilai0                              3.08812e+08
# pilai1                              777735
# pilct0                              5.34663e+08
# pilct1                              777735
# pilroi0                             0
# pilroi1                             0
# sec                                 1
# title                               20251028_20perc_iodine_1.23mg_0_00554.edf
# usaxs0                              0
# Operation                           Azimuthal average I(q)
# Error_model                         ErrorModel.poisson
# Geometrical_correction              True
# Transmission_correction             True
# Thickness_correction                False
# Binning mode                        Uniform
# Binning factor                      1.0
# Psi                                 0.0
# Omega                               0.2499
# MaskInvalidPixels                   True
# DetectorEdge                        3
# MaskFiles                           ['20251028_20perc_iodine_1.23mg_0_00012_mask.edf']
################################################################################
    q(A⁻¹)                Intensity(a.u.)            Sigma_I(a.u.)            
       0.000340                372718.418                120.347183           
       0.001019                 359414.64                72.3700767           
       0.001698                349772.724                50.4823029           
       0.002377                330940.209                43.9203711           
       0.003056                307961.931                35.8076486           
       0.003735                253495.584                28.6510367           
       0.004415                204887.894                25.7580744           
       0.005094                153066.238                 19.280829           
       0.005773                101100.686                14.5074073           
       0.006452                58886.2103                 10.608374           
       0.007131                32388.2775                7.62156859           
       0.007810                16222.7802                5.35300908           
       0.008490                8122.51945                3.35747865           
       0.009169                3893.09143                2.29723721           
       0.009848                1201.66175                1.23397178           
       0.010527                464.528838               0.767221406           
       0.011206                117.603902                0.36843319           
       0.011885                54.6058249               0.233257402           
       0.012564                24.9778965               0.161966668           
       0.013244                17.0656574               0.125161051           
       0.013923                12.3768834               0.108308615           
       0.014602                9.40623208              0.0875689461           
       0.015281                7.53553791              0.0797862919           
       0.015960                6.21564913              0.0719432952           
       0.016639                4.94840604              0.0606169897           
       0.017319                4.13206278              0.0545303059           
       0.017998                 3.4729729              0.0478273743           
       0.018677                2.85322382              0.0448992319           
       0.019356                2.49371181              0.0414756524           
       0.020035                2.14953233              0.0361272866           
       0.020714                1.79395219              0.0333534698           
       0.021394                1.55699229              0.0294000908           
       0.022073                1.46378792              0.0296588208           
       0.022752                1.20652068               0.025758212           
       0.023431                1.08263135              0.0236845927           
       0.024110                1.04279995              0.0242344312           
       0.024789               0.926080394              0.0212098147           
       0.025469               0.792124809              0.0202144257           
       0.026148                0.71805035              0.0180832707           
       0.026827               0.673716033              0.0177964278           
       0.027506               0.615884048              0.0172608389           
       0.028185               0.558645319              0.0156771393           
       0.028864               0.537628591              0.0152931244           
       0.029544               0.469148704              0.0138533902           
       0.030223               0.464638381              0.0139843311           
       0.030902               0.401570426              0.0131196197           
       0.031581               0.363315469              0.0118627221           
       0.032260               0.342039582               0.011706261           
       0.032939               0.295505064              0.0104915023           
       0.033619               0.287870522              0.0105072744           
       0.034298               0.271051504             0.00992207648           
       0.034977               0.243915966             0.00922734994           
       0.035656               0.220434837             0.00900412543           
       0.036335                0.21596618              0.0086439036           
       0.037014               0.216331114             0.00867700906           
       0.037693               0.186264624             0.00774541822           
       0.038373               0.175975755             0.00760233905           
       0.039052               0.173963304             0.00759090417           
       0.039731               0.172960505             0.00739260226           
       0.040410               0.149289893             0.00682209128           
       0.041089               0.133840865             0.00635828414           
       0.041768                0.14226533             0.00658958669           
       0.042448               0.125060117             0.00613034603           
       0.043127               0.119443209             0.00584959906           
       0.043806               0.119084703             0.00588436417           
       0.044485               0.111567488             0.00557860491           
       0.045164               0.116043587             0.00580154469           
       0.045843                0.11157281             0.00545614346           
       0.046523              0.0996848771             0.00517509506           
       0.047202               0.105190198             0.00535322571           
       0.047881              0.0934958777             0.00494956787           
       0.048560              0.0976580489             0.00510464603           
       0.049239              0.0873320797             0.00463501748           
       0.049918              0.0869491611             0.00471525573           
       0.050598              0.0888146611             0.00469407171           
       0.051277              0.0840388743             0.00455163273           
       0.051956              0.0859054078             0.00457300354           
       0.052635              0.0753065592             0.00419075094           
       0.053314              0.0836780193             0.00454670254           
       0.053993              0.0726282245             0.00411970099           
       0.054673              0.0729621098             0.00403718044           
       0.055352               0.067938533             0.00395294076           
       0.056031              0.0724149967             0.00399534341           
       0.056710              0.0786282682             0.00426523797           
       0.057389              0.0649234074             0.00373741825           
       0.058068               0.069789206             0.00391488595           
       0.058748              0.0611611594              0.0037106225           
       0.059427              0.0681055216             0.00384932098           
       0.060106              0.0617836805               0.003701016           
       0.060785              0.0664130152             0.00372219627           
       0.061464              0.0598343597             0.00361819469           
       0.062143              0.0679088388             0.00381544805           
       0.062822              0.0611650536              0.0035785541           
       0.063502              0.0628815589             0.00362193744           
       0.064181              0.0524493318             0.00327294598           
       0.064860              0.0515546475             0.00329433417           
       0.065539              0.0522312389             0.00328345654           
       0.066218              0.0533589388             0.00324765341           
       0.066897               0.050091706             0.00317094512           
       0.067577              0.0425659401             0.00295113701           
       0.068256              0.0534867321             0.00338938273           
       0.068935              0.0416363879             0.00294207955           
       0.069614              0.0443724973             0.00306744485           
       0.070293              0.0453392622             0.00312927243           
       0.070972              0.0466928142             0.00315238778           
       0.071652              0.0438339465             0.00305996006           
       0.072331              0.0361057952             0.00272765208           
       0.073010               0.038620125             0.00288548541           
       0.073689              0.0416120784             0.00297871298           
       0.074368              0.0403958064             0.00292952046           
       0.075047              0.0377162318             0.00280026599           
       0.075727               0.036181573             0.00272576338           
       0.076406              0.0395295672             0.00290593122           
       0.077085              0.0405346456             0.00288764843           
       0.077764              0.0357976699             0.00270417039           
       0.078443              0.0329098538             0.00260885681           
       0.079122              0.0414528222             0.00289982662           
       0.079802              0.0345944768             0.00267719611           
       0.080481              0.0348215371             0.00259536511           
       0.081160              0.0375079421             0.00274889185           
       0.081839               0.038293815              0.0027330729           
       0.082518              0.0367182324             0.00267851071           
       0.083197              0.0380688865             0.00268495251           
       0.083876              0.0330049417             0.00245846428           
       0.084556              0.0322906108             0.00249934299           
       0.085235              0.0327850123             0.00246974744           
       0.085914               0.034565938             0.00256057512           
       0.086593              0.0316798233             0.00243556959           
       0.087272              0.0318445711             0.00240737752           
       0.087951              0.0312216807             0.00243756241           
       0.088631              0.0284072063             0.00224590709           
       0.089310               0.029259034             0.00232767488           
       0.089989              0.0326924103             0.00243169226           
       0.090668              0.0306942069             0.00238221479           
       0.091347              0.0333378938             0.00249658613           
       0.092026              0.0312642401             0.00231092484           
       0.092706              0.0282781006             0.00227756771           
       0.093385              0.0280856008             0.00223494656           
       0.094064              0.0267987513             0.00220855359           
       0.094743              0.0298668209             0.00229602151           
       0.095422              0.0292884243             0.00224832659           
       0.096101              0.0298542753             0.00231669158           
       0.096781              0.0263749354             0.00214633408           
       0.097460              0.0277254424             0.00214056945           
       0.098139              0.0270924146             0.00209971002           
       0.098818              0.0298506634             0.00217686242           
       0.099497              0.0292804785             0.00216039833           
       0.100176              0.0257717974             0.00197363416           
       0.100856              0.0232879886             0.00187491639           
       0.101535               0.029226058             0.00209634438           
       0.102214              0.0242482422             0.00190950293           
       0.102893              0.0275542139             0.00201232231           
       0.103572              0.0284389844             0.00201417375           
       0.104251               0.024473734              0.0018753893           
       0.104931              0.0247452844             0.00186859678           
       0.105610              0.0231909096             0.00181667351           
       0.106289              0.0251956469              0.0018620553           
       0.106968              0.0269022115             0.00192979328           
       0.107647              0.0211086532              0.0017104392           
       0.108326              0.0273892491             0.00192228728           
       0.109005              0.0213402908             0.00168611544           
       0.109685              0.0238469731             0.00176240116           
       0.110364              0.0261159291             0.00186528746           
       0.111043              0.0244688982             0.00179835267           
       0.111722              0.0250257366             0.00179647058           
       0.112401              0.0193395739             0.00158363887           
       0.113080              0.0238569826             0.00173874112           
       0.113760               0.022960609             0.00173425458           
       0.114439              0.0253410492             0.00179593516           
       0.115118              0.0239627813             0.00173324467           
       0.115797              0.0217248629             0.00166561494           
       0.116476              0.0215641845             0.00163460696           
       0.117155              0.0254336093             0.00178953223           
       0.117835              0.0209018852             0.00159003841           
       0.118514               0.023328014             0.00170108408           
       0.119193              0.0203434937             0.00158855698           
       0.119872              0.0239385931             0.00170166338           
       0.120551              0.0230385556             0.00165824774           
       0.121230              0.0218767884             0.00159963535           
       0.121910              0.0204257277              0.0015606128           
       0.122589              0.0212400713              0.0015930583           
       0.123268              0.0200947403             0.00151949256           
       0.123947              0.0226742548             0.00162451448           
       0.124626              0.0197462187             0.00149746358           
       0.125305              0.0226937719             0.00161322017           
       0.125985              0.0207465115             0.00153048754           
       0.126664              0.0222468064             0.00156976429           
       0.127343              0.0202837165             0.00151628018           
       0.128022              0.0232791222             0.00161192605           
       0.128701              0.0227190609              0.0015841225           
       0.129380              0.0215471927             0.00152340452           
       0.130059              0.0218407531              0.0015373088           
       0.130739              0.0190927412             0.00144745423           
       0.131418              0.0212758296             0.00152368899           
       0.132097              0.0194260472             0.00143727387           
       0.132776              0.0209579122             0.00148612787           
       0.133455              0.0194387471             0.00144237227           
       0.134134              0.0215807183              0.0015149243           
       0.134814              0.0219412029             0.00151178538           
       0.135493              0.0209712369             0.00148397289           
       0.136172              0.0187944608             0.00139424121           
       0.136851              0.0191401178             0.00141518683           
       0.137530              0.0204938057             0.00142958545           
       0.138209              0.0183397938             0.00136824913           
       0.138889              0.0192457083             0.00140781334           
       0.139568              0.0195098428             0.00141682846           
       0.140247              0.0206190258             0.00145463806           
       0.140926              0.0190287096              0.0013574593           
       0.141605              0.0166970649             0.00130388101           
       0.142284              0.0201311606             0.00140797663           
       0.142964              0.0185210519             0.00135566311           
       0.143643               0.020550311             0.00142619589           
       0.144322              0.0216678853             0.00143381815           
       0.145001              0.0219036508             0.00147118809           
       0.145680              0.0190778175             0.00134052852           
       0.146359              0.0164387113             0.00124891055           
       0.147039              0.0172077875             0.00128831133           
       0.147718              0.0188141808             0.00132487463           
       0.148397              0.0176684388             0.00130385102           
       0.149076              0.0189058857             0.00130689729           
       0.149755              0.0185828399             0.00131568982           
       0.150434              0.0183882759             0.00130931818           
       0.151114              0.0178271899             0.00128205703           
       0.151793              0.0181150946             0.00129237999           
       0.152472              0.0197766739             0.00132649787           
       0.153151              0.0207018892             0.00137029304           
       0.153830              0.0200415072             0.00133843685           
       0.154509              0.0206830632             0.00135401764           
       0.155188              0.0192653804             0.00130630665           
       0.155868              0.0194973103             0.00130479464           
       0.156547              0.0192054792             0.00130331133           
       0.157226              0.0192031778             0.00127140239           
       0.157905               0.018665213             0.00126399571           
       0.158584               0.018347604             0.00125091872           
       0.159263              0.0194118877             0.00129142246           
       0.159943               0.014391612             0.00111278933           
       0.160622              0.0179486749             0.00121874048           
       0.161301              0.0175189786             0.00122016828           
       0.161980               0.019683239             0.00127135504           
       0.162659               0.017298331             0.00120505768           
       0.163338               0.015942498             0.00114743912           
       0.164018              0.0160250226             0.00114436711           
       0.164697              0.0141868166             0.00109055986           
       0.165376              0.0180308749             0.00120260067           
       0.166055              0.0193850511             0.00125516637           
       0.166734              0.0169841652             0.00116960742           
       0.167413              0.0198278843             0.00126462034           
       0.168093              0.0173458454             0.00119401156           
       0.168772              0.0159442083             0.00111127605           
       0.169451              0.0153541798             0.00111058412           
       0.170130              0.0177471267             0.00117831907           
       0.170809                0.01769425             0.00119060346           
       0.171488              0.0195705785             0.00124072538           
       0.172168              0.0165622802             0.00113042454           
       0.172847               0.018126257             0.00119812826           
       0.173526              0.0169704938             0.00113718625           
       0.174205              0.0166600889             0.00113192742           
       0.174884              0.0182481328             0.00117847402           
       0.175563              0.0192192282             0.00121458831           
       0.176243              0.0168259833             0.00114782593           
       0.176922              0.0150472989             0.00105717603           
       0.177601              0.0171527444             0.00114112076           
       0.178280              0.0160750846             0.00109236124           
       0.178959              0.0138734826             0.00102296693           
       0.179638              0.0168618875               0.001124526           
       0.180317              0.0166609606              0.0011096628           
       0.180997              0.0168708124              0.0011226901           
       0.181676              0.0169218523             0.00111238114           
       0.182355              0.0186948209             0.00117622622           
       0.183034              0.0153718364             0.00104946137           
       0.183713              0.0169484781             0.00111538815           
       0.184392               0.016624065             0.00110432751           
       0.185072              0.0152397384             0.00104529801           
       0.185751              0.0165528487              0.0010924316           
       0.186430              0.0179155566             0.00112854922           
       0.187109              0.0175411129             0.00112912969           
       0.187788              0.0157117991             0.00106599752           
       0.188467              0.0155667416             0.00104850848           
       0.189147              0.0157695678             0.00106600424           
       0.189826              0.0147092553             0.00101133658           
       0.190505              0.0167775587             0.00109788192           
       0.191184              0.0149736752             0.00102223497           
       0.191863              0.0168516073             0.00108672874           
       0.192542              0.0161780149              0.0010748291           
       0.193222              0.0179652138             0.00110726015           
       0.193901              0.0178714109             0.00111916812           
       0.194580              0.0175440715             0.00108947428           
       0.195259              0.0168466458             0.00107986106           
       0.195938              0.0146399281             0.00100905807           
       0.196617               0.016854664             0.00106758357           
       0.197297              0.0160513703             0.00104608641           
       0.197976               0.015946105             0.00102663511           
       0.198655              0.0146777328            0.000995717844           
       0.199334              0.0163300498             0.00104100701           
       0.200013              0.0153167145             0.00100763174           
       0.200692              0.0157115639             0.00102667547           
       0.201371              0.0131973207            0.000930352467           
       0.202051              0.0167535004             0.00105149173           
       0.202730              0.0170794277             0.00105106663           
       0.203409              0.0171727572             0.00106100934           
       0.204088              0.0145206102            0.000974565408           
       0.204767              0.0167021952             0.00103972078           
       0.205446              0.0158026118             0.00101330972           
       0.206126              0.0159286558             0.00100352108           
       0.206805              0.0163895333              0.0010365967           
       0.207484              0.0163813332             0.00101770654           
       0.208163              0.0167066437              0.0010339379           
       0.208842              0.0150346335            0.000978177823           
       0.209521              0.0155110017             0.00098529656           
       0.210201              0.0149079266            0.000976731538           
       0.210880              0.0140772281            0.000930504029           
       0.211559              0.0158951293             0.00100338079           
       0.212238              0.0144781886            0.000952741999           
       0.212917              0.0135742725            0.000919093901           
       0.213596              0.0149753928            0.000971071213           
       0.214276              0.0159144751            0.000980199925           
       0.214955              0.0147682208            0.000964097148           
       0.215634              0.0156379498            0.000984969649           
       0.216313              0.0156322311            0.000982721622           
       0.216992              0.0155330266            0.000979353083           
       0.217671              0.0153342367             0.00096647496           
       0.218351              0.0148967826            0.000961905909           
       0.219030              0.0157483492            0.000973405894           
       0.219709              0.0161693218            0.000992482742           
       0.220388              0.0158327515            0.000980837304           
       0.221067              0.0162247095            0.000993691142           
       0.221746               0.014202607            0.000928756567           
       0.222426              0.0156513041            0.000960403326           
       0.223105              0.0157889112            0.000977757486           
       0.223784               0.016777638            0.000997909409           
       0.224463              0.0152253725            0.000958196418           
       0.225142              0.0163321154            0.000976709099           
       0.225821              0.0159451716            0.000968956887           
       0.226500              0.0141122857            0.000917362943           
       0.227180              0.0155870307            0.000949251464           
       0.227859              0.0156137006             0.00095432535           
       0.228538              0.0150388319            0.000927187543           
       0.229217              0.0149522218            0.000931831804           
       0.229896              0.0150691059            0.000935016501           
       0.230575              0.0164760588             0.00096210723           
       0.231255              0.0156513992            0.000951759785           
       0.231934               0.014695374            0.000915933241           
       0.232613              0.0137676307            0.000889820579           
       0.233292               0.015080501            0.000922283071           
       0.233971              0.0151238587            0.000923176914           
       0.234650              0.0149674415             0.00092919305           
       0.235330              0.0147430978            0.000914150044           
       0.236009              0.0136190887            0.000876718146           
       0.236688              0.0137959583            0.000879234871           
       0.237367              0.0155728786            0.000935499877           
       0.238046              0.0150680997            0.000926693934           
       0.238725              0.0139688822            0.000878487252           
       0.239405              0.0152654265            0.000924046531           
       0.240084              0.0145663517            0.000896892735           
       0.240763              0.0138505095            0.000882951196           
       0.241442              0.0144412152            0.000888879241           
       0.242121              0.0141789129             0.00088243223           
       0.242800              0.0144782111            0.000895918562           
       0.243480              0.0157781803            0.000930896233           
       0.244159              0.0147932346             0.00090180882           
       0.244838              0.0144595971            0.000876910743           
       0.245517              0.0134155532            0.000856809413           
       0.246196              0.0150667833            0.000908446942           
       0.246875              0.0139432172            0.000861735974           
       0.247554              0.0125628126            0.000826280915           
       0.248234              0.0131750022            0.000833343266           
       0.248913              0.0139820639            0.000868117747           
       0.249592              0.0134796892             0.00084427973           
       0.250271              0.0120310962            0.000795309413           
       0.250950              0.0131211816            0.000835645096           
       0.251629              0.0148509078            0.000881464608           
       0.252309              0.0136355464            0.000846340627           
       0.252988              0.0150384567            0.000873503109           
       0.253667              0.0138567887            0.000848279425           
       0.254346              0.0138565674            0.000848098089           
       0.255025              0.0126954778            0.000810010028           
       0.255704              0.0139030192            0.000843775198           
       0.256384              0.0145780054            0.000861025844           
       0.257063              0.0130026984            0.000817811011           
       0.257742              0.0144301681            0.000855563566           
       0.258421              0.0138248969            0.000835816183           
       0.259100              0.0128467469            0.000807110677           
       0.259779              0.0131376145            0.000815504682           
       0.260459              0.0133500826            0.000823686981           
       0.261138              0.0137924838            0.000820862297           
       0.261817              0.0130005612            0.000813035316           
       0.262496              0.0121332561            0.000777744304           
       0.263175              0.0141370484            0.000841316369           
       0.263854              0.0122238418            0.000778684315           
       0.264534              0.0125950844            0.000783669531           
       0.265213              0.0120394437            0.000778262738           
       0.265892              0.0134045629            0.000810679757           
       0.266571              0.0133111046            0.000806011616           
       0.267250              0.0120585507            0.000768445011           
       0.267929              0.0123898108            0.000778129765           
       0.268609              0.0112874037            0.000746772171           
       0.269288              0.0130560907            0.000789809737           
       0.269967              0.0136833131            0.000817270301           
       0.270646              0.0126906175            0.000783664231           
       0.271325              0.0117161735            0.000754234313           
       0.272004               0.012810827            0.000780820214           
       0.272683              0.0117046462            0.000747270601           
       0.273363              0.0115139923            0.000745886593           
       0.274042              0.0114228699            0.000738545988           
       0.274721              0.0115952006            0.000743654998           
       0.275400              0.0115190082            0.000736300125           
       0.276079              0.0132198311            0.000793266894           
       0.276758              0.0117789117            0.000758237557           
       0.277438              0.0110670282            0.000726717496           
       0.278117              0.0116332739            0.000758625102           
       0.278796              0.0114398751            0.000744656724           
       0.279475              0.0113430222            0.000753746939           
       0.280154              0.0109111113            0.000728623685           
       0.280833              0.0121260684            0.000772790675           
       0.281513              0.0124339041            0.000794815318           
       0.282192              0.0117918448            0.000760817003           
       0.282871              0.0115836315            0.000759339346           
       0.283550              0.0110055518            0.000744115927           
       0.284229              0.0109392388             0.00075276688           
       0.284908              0.0118092684            0.000790378778           
       0.285588              0.0118596435             0.00078278764           
       0.286267               0.010602489            0.000751987788           
       0.286946              0.0120812487            0.000797497475           
       0.287625              0.0113722961            0.000786918659           
       0.288304               0.011702948            0.000787592009           
       0.288983              0.0121063992            0.000811197077           
       0.289663             0.00956481311            0.000725256409           
       0.290342             0.00908077063            0.000702905103           
       0.291021              0.0117828905            0.000804997881           
       0.291700              0.0101039352            0.000735704259           
       0.292379             0.00936854842            0.000724645579           
       0.293058               0.010406478            0.000760847824           
       0.293738              0.0107745034            0.000767683488           
       0.294417             0.00997720135            0.000747320198           
       0.295096              0.0101226481            0.000744472488           
       0.295775              0.0118630516            0.000818242776           
       0.296454              0.0101686868            0.000747760317           
       0.297133              0.0103792989            0.000759038469           
       0.297812              0.0102124017             0.00075668736           
       0.298492              0.0109790035            0.000786090026           
       0.299171               0.011669618            0.000808903515           
       0.299850              0.0111119549            0.000783949061           
       0.300529              0.0115580047            0.000808534943           
       0.301208             0.00922053137            0.000723920459           
       0.301887             0.00964947849             0.00073968772           
       0.302567             0.00944311659            0.000728070774           
       0.303246             0.00922345528            0.000724250752           
       0.303925             0.00918417643            0.000731986351           
       0.304604             0.00883770059            0.000702541731           
       0.305283             0.00996635472            0.000757119544           
       0.305962             0.00871186138            0.000703590829           
       0.306642              0.0114087331            0.000816097521           
       0.307321             0.00969753291            0.000750006406           
       0.308000             0.00817608651            0.000680500626           
       0.308679              0.0110158072            0.000806990595           
       0.309358             0.00920727352            0.000727798221           
       0.310037             0.00989317407            0.000756101065           
       0.310717              0.0096531741            0.000746154997           
       0.311396             0.00802949335            0.000685079526           
       0.312075             0.00879018344            0.000725886328           
       0.312754             0.00835451006             0.00069351165           
       0.313433             0.00853087464            0.000706888325           
       0.314112             0.00804250589            0.000686198907           
       0.314792             0.00906546237            0.000733677832           
       0.315471             0.00830349561            0.000693484346           
       0.316150             0.00878248466            0.000719806474           
       0.316829              0.0105508148            0.000794160919           
       0.317508             0.00920128762            0.000733312278           
       0.318187             0.00908246379            0.000738172879           
       0.318866             0.00888888378            0.000720426501           
       0.319546             0.00863412472            0.000720670701           
       0.320225             0.00826777292            0.000705229495           
       0.320904             0.00813238518            0.000688616807           
       0.321583             0.00813550059            0.000703925062           
       0.322262             0.00935942371            0.000743577617           
       0.322941             0.00858683055            0.000721351416           
       0.323621             0.00794119534            0.000689469193           
       0.324300             0.00788932318            0.000687752307           
       0.324979             0.00785173101             0.00068735221           
       0.325658             0.00777302856            0.000685139375           
       0.326337             0.00797064949            0.000694699765           
       0.327016             0.00749824179            0.000669520765           
       0.327696             0.00724423598            0.000665401972           
       0.328375             0.00809076313            0.000697272031           
       0.329054             0.00849822886             0.00071849018           
       0.329733             0.00793800363            0.000696940032           
       0.330412             0.00845141133            0.000713232808           
       0.331091             0.00753454527            0.000685650007           
       0.331771              0.0078328584            0.000680773133           
       0.332450             0.00749009789            0.000678636362           
       0.333129             0.00864972489            0.000727398549           
       0.333808             0.00660277788            0.000636367888           
       0.334487             0.00636216019            0.000627626792           
       0.335166             0.00665380283            0.000632457202           
       0.335846             0.00739477745            0.000678460224           
       0.336525             0.00699634177            0.000653413684           
       0.337204             0.00618660148            0.000616049856           
       0.337883             0.00711964413            0.000661750423           
       0.338562             0.00652279579            0.000636920689           
       0.339241             0.00735449334            0.000677575793           
       0.339921             0.00631799208            0.000617484706           
       0.340600             0.00675108014            0.000650419302           
       0.341279             0.00667422683            0.000639781429           
       0.341958             0.00579525584            0.000604577224           
       0.342637             0.00635541675            0.000624177909           
       0.343316             0.00608710993            0.000612628953           
       0.343995             0.00589606967            0.000612811437           
       0.344675             0.00692068018            0.000651724958           
       0.345354             0.00737925496            0.000677409872           
       0.346033             0.00610758814            0.000614676412           
       0.346712             0.00707586044            0.000665830448           
       0.347391             0.00729050646             0.00068003872           
       0.348070             0.00651069134            0.000633514431           
       0.348750             0.00697098629            0.000664998246           
       0.349429             0.00678534564            0.000647613968           
       0.350108             0.00651089456            0.000642015365           
       0.350787             0.00620195136            0.000615953192           
       0.351466             0.00525940407            0.000577669226           
       0.352145             0.00743181554            0.000687256196           
       0.352825             0.00629257963            0.000629526394           
       0.353504             0.00440565498             0.00052662116           
       0.354183             0.00539859762            0.000576236738           
       0.354862             0.00611504933            0.000627533369           
       0.355541             0.00688938159            0.000657357561           
       0.356220             0.00458133542            0.000537065372           
       0.356900             0.00569963218            0.000604728124           
       0.357579             0.00706530422            0.000665034219           
       0.358258             0.00610970049            0.000626985221           
       0.358937             0.00612606541            0.000616021021           
       0.359616             0.00578199026            0.000606828626           
       0.360295             0.00548438455            0.000591497587           
       0.360975             0.00486756986            0.000554860448           
       0.361654             0.00550255226            0.000592984049           
       0.362333             0.00630836406            0.000631692003           
       0.363012             0.00467715381              0.0005509218           
       0.363691             0.00591887704             0.00060752605           
       0.364370             0.00556688063            0.000596493502           
       0.365050             0.00574588681            0.000602765146           
       0.365729             0.00533214984            0.000586195068           
       0.366408             0.00415073003            0.000518338876           
       0.367087             0.00532109058            0.000577470561           
       0.367766             0.00561317029            0.000605465715           
       0.368445             0.00479220958            0.000549507171           
       0.369124             0.00493038083             0.00056175126           
       0.369804             0.00504480181            0.000567323016           
       0.370483             0.00354315011            0.000477528385           
       0.371162             0.00501171089            0.000571226119           
       0.371841             0.00401872325            0.000502597303           
       0.372520             0.00451579717            0.000543453622           
       0.373199             0.00517287862            0.000574700399           
       0.373879             0.00516884851             0.00058112769           
       0.374558             0.00590042517            0.000611832094           
       0.375237             0.00470183316            0.000547060746           
       0.375916             0.00456999268            0.000549668618           
       0.376595             0.00507756975            0.000568066282           
       0.377274             0.00473081167            0.000557103101           
       0.377954              0.0052719361            0.000578863706           
       0.378633             0.00358856209            0.000483621264           
       0.379312             0.00404672898            0.000513437474           
       0.379991             0.00400058987            0.000507859823           
       0.380670             0.00461005001              0.0005548092           
       0.381349             0.00493313639            0.000565680816           
       0.382029              0.0051458577            0.000586026562           
       0.382708             0.00518000124            0.000575127874           
       0.383387             0.00415834192            0.000526977198           
       0.384066             0.00400692628            0.000512547567           
       0.384745             0.00429479671            0.000532725768           
       0.385424             0.00427834912            0.000533510605           
       0.386104                0.00442486            0.000536572743           
       0.386783             0.00416309817            0.000531717253           
       0.387462             0.00380230665            0.000495513442           
       0.388141             0.00366987373            0.000494582833           
       0.388820             0.00388111292             0.00050494123           
       0.389499             0.00505588001            0.000579560911           
       0.390178             0.00551152149            0.000607522657           
       0.390858             0.00381814819            0.000501562024           
       0.391537             0.00405193948            0.000521965685           
       0.392216             0.00401280598            0.000512928261           
       0.392895             0.00449643462            0.000544787731           
       0.393574             0.00447662609            0.000542238985           
       0.394253             0.00404687913             0.00051787487           
       0.394933             0.00524652751             0.00059639685           
       0.395612             0.00389714744            0.000499080722           
       0.396291              0.0039256025            0.000511097084           
       0.396970             0.00451666198            0.000543368022           
       0.397649             0.00453733054            0.000546286622           
       0.398328             0.00333535452            0.000466313723           
       0.399008             0.00422380829            0.000523617826           
       0.399687             0.00340832103            0.000472191594           
       0.400366             0.00480805286            0.000558686721           
       0.401045             0.00388891852            0.000501506138           
       0.401724             0.00265653007             0.00041518678           
       0.402403             0.00350317546            0.000480495022           
       0.403083             0.00333421316            0.000462004997           
       0.403762             0.00388224541            0.000500988547           
       0.404441             0.00367751413            0.000490705294           
       0.405120             0.00456029818            0.000544645207           
       0.405799             0.00425463481            0.000523790228           
       0.406478              0.0039327687            0.000503600736           
       0.407158              0.0033371713            0.000463031534           
       0.407837             0.00397118909            0.000509563171           
       0.408516             0.00339821852            0.000467270924           
       0.409195             0.00360408401             0.00048667545           
       0.409874             0.00305360782            0.000454202379           
       0.410553             0.00388252184            0.000517661245           
       0.411233             0.00321342564             0.00046850761           
       0.411912             0.00303732805            0.000461943395           
       0.412591             0.00351645284            0.000500334125           
       0.413270             0.00355752101            0.000500856487           
       0.413949             0.00348732616            0.000501306709           
       0.414628              0.0037031899            0.000515661576           
       0.415307             0.00283802515            0.000456445694           
       0.415987             0.00343469925              0.0004980027           
       0.416666             0.00339182468            0.000491907206           
       0.417345              0.0028537968            0.000458744124           
       0.418024               0.003002691            0.000470571234           
       0.418703             0.00327708916            0.000490699484           
       0.419382             0.00244216597            0.000421527216           
       0.420062              0.0027441002            0.000448077474           
       0.420741             0.00322837653            0.000488594636           
       0.421420             0.00280941592            0.000457518406           
       0.422099              0.0031765905            0.000486510766           
       0.422778             0.00268490996            0.000449699283           
       0.423457             0.00279762976            0.000461851712           
       0.424137              0.0023345652             0.00041502531           
       0.424816             0.00305930952            0.000485027298           
       0.425495             0.00244026485            0.000432774749           
       0.426174             0.00181779001            0.000373652014           
       0.426853             0.00294360719            0.000472595234           
       0.427532              0.0023040763            0.000421652071           
       0.428212             0.00257275137            0.000448499707           
       0.428891             0.00308769607            0.000490220648           
       0.429570             0.00233831138            0.000426896253           
       0.430249             0.00214757453            0.000406990791           
       0.430928             0.00169134761            0.000369080778           
       0.431607              0.0024842004            0.000439613722           
       0.432287             0.00205163127            0.000402435936           
       0.432966             0.00216523402            0.000417064171           
       0.433645             0.00185143925            0.000386063271           
       0.434324             0.00166427047            0.000363822781           
       0.435003             0.00319130877            0.000504665334           
       0.435682             0.00235112341            0.000436721086           
       0.436361             0.00203232535            0.000405491202           
       0.437041             0.00314261968            0.000503559465           
       0.437720              0.0022022098            0.000423568772           
       0.438399             0.00206361593            0.000412163384           
       0.439078             0.00168760219            0.000383534625           
       0.439757             0.00224804588            0.000439934879           
       0.440436             0.00291809819            0.000512524482           
       0.441116             0.00301717801            0.000529674747           
       0.441795             0.00229552877            0.000462565344           
       0.442474              0.0023971321            0.000474009474           
       0.443153             0.00105211002            0.000321356552           
       0.443832              0.0017480585            0.000414921543           
       0.444511             0.00230753778            0.000474570938           
       0.445191             0.00316240517            0.000569078915           
       0.445870             0.00224282398             0.00047926222           
       0.446549             0.00207424767             0.00046575937           
       0.447228             0.00247528504            0.000505921244           
       0.447907             0.00232055757            0.000495731725           
       0.448586             0.00267771772            0.000545329247           
       0.449266             0.00142300329            0.000393881986           
       0.449945             0.00205751463            0.000471693181           
       0.450624             0.00304201356             0.00058265473           
       0.451303              0.0015108976            0.000415950543           
       0.451982             0.00217794431            0.000496311646           
       0.452661             0.00238226727            0.000528740797           
       0.453341             0.00286680496            0.000582057579           
       0.454020             0.00169718241            0.000448530989           
       0.454699             0.00294320218            0.000596055572           
       0.455378             0.00160378698            0.000440233458           
       0.456057             0.00193987574             0.00049277935           
       0.456736             0.00104079866            0.000359825979           
       0.457416             0.00166991502            0.000455794071           
       0.458095             0.00274471213            0.000592802416           
       0.458774             0.00151106419            0.000445661326           
       0.459453             0.00153902208            0.000452033655           
       0.460132               0.001186388            0.000388311191           
       0.460811             0.00294372401            0.000634488088           
       0.461490             0.00220036232            0.000542978255           
       0.462170             0.00229658085            0.000563379716           
       0.462849             0.00259800953             0.00060309872           
       0.463528             0.00163211222            0.000476908179           
       0.464207             0.00228025548            0.000574252058           
       0.464886              0.0023767077            0.000581706291           
       0.465565             0.00258444673            0.000613259709           
       0.466245             0.00230601516            0.000581081831           
       0.466924            0.000434360732            0.000258149355           
       0.467603             0.00113507988            0.000408458682           
       0.468282             0.00181624214            0.000528932264           
       0.468961             0.00217519173            0.000582647157           
       0.469640            0.000774710261            0.000349104631           
       0.470320             0.00172211039            0.000520854617           
       0.470999            0.000952420698            0.000391000649           
       0.471678             0.00147675597            0.000491554826           
       0.472357             0.00182801862            0.000548426765           
       0.473036             0.00167556061            0.000528373589           
       0.473715             0.00118698276            0.000448195442           
       0.474395             0.00107301039            0.000432025521           
       0.475074            0.000722089957            0.000354417976           
       0.475753            0.000863435694            0.000384212432           
       0.476432             0.00150163528            0.000525132077           
       0.477111            0.000755396818            0.000367951026           
       0.477790             0.00165214334            0.000547067044           
       0.478470              0.0011564094            0.000463743789           
       0.479149            0.000813806416            0.000393053621           
       0.479828            0.000985708923            0.000431560832           
       0.480507             0.00023751943            0.000213552471           
       0.481186            0.000289838953            0.000241220774           
       0.481865            6.69436849e-05            0.000114493169           
       0.482545            0.000668898249            0.000366164655           
       0.483224            0.000285233462            0.000240743228           
       0.483903           -0.000116631447                         0           
       0.484582           -0.000116707048                         0           
       0.485261            0.000287156906            0.000243031032           
       0.485940            0.000113178205            0.000158730008           
       0.486619            0.000317992939            0.000263137375           
       0.487299           -0.000101465045                         0           
       0.487978            0.000984068681            0.000465487336           
       0.488657           -0.000318214607                         0           
       0.489336            0.000344056461            0.000281572004           
       0.490015           -0.000318253199                         0           
       0.490694           -7.15720024e-05                         0           
       0.491374           -7.76315257e-05                         0           
       0.492053           -0.000318311052                         0           
       0.492732           -6.95678244e-05                         0           
       0.493411            -6.4706836e-05                         0           
       0.494090            0.000718491927            0.000430529017           
       0.494769           -0.000318388676                         0           
       0.495449           -0.000318408194                         0           
       0.496128           -4.50259805e-05                         0           
       0.496807           -0.000318447137                         0           
       0.497486           -5.30577066e-05                         0           
       0.498165           -0.000318486504                         0           
       0.498844           -0.000318506029                         0           
       0.499524           -0.000318525646                         0           
       0.500203           -0.000318545574                         0           
       0.500882            -1.9663808e-05                         0           
       0.501561           -0.000318584708                         0           
       0.502240           -0.000318604567                         0           
       0.502919           -1.57531872e-06                         0           
       0.503599           -0.000318644189                         0           
       0.504278           -0.000318664318                         0           
       0.504957           -0.000318684211                         0           
       0.505636            0.000334012081            0.000329077136           
       0.506315           -0.000318724067                         0           
       0.506994           -0.000318743798                         0           
       0.507673           -0.000318763489                         0           
       0.508353           -0.000318783596                         0           
       0.509032            4.38599775e-05            0.000126137629           
       0.509711           -0.000318823646                         0           
       0.510390           -0.000318843989                         0           
       0.511069           -0.000318864265                         0           
       0.511748            -0.00031888446                         0           
       0.512428           -0.000318904798                         0           
       0.513107           -0.000318924824                         0           
       0.513786           -0.000318944912                         0           
       0.514465            0.000794268367            0.000546120667           
       0.515144            -0.00031898576                         0           
       0.515823            7.80918214e-05            0.000176314634           
       0.516503           -0.000319026412                         0           
       0.517182           -0.000319046831                         0           
       0.517861            0.000105467707            0.000211735882           
       0.518540            0.000576059191            0.000507667937           
       0.519219            0.000116124854            0.000224601118           
       0.519898           -0.000319128621                         0           
       0.520578           -0.000319149316                         0           
       0.521257           -0.000319169744                         0           
       0.521936           -0.000319190221                         0           
       0.522615           -0.000319210943                         0           
       0.523294           -0.000319231742                         0           
       0.523973           -0.000319252254                         0           
       0.524653           -0.000319272617                         0           
       0.525332             0.00062604231            0.000543855168           
       0.526011           -0.000319314309                         0           
       0.526690           -0.000319335301                         0           
       0.527369           -0.000319356119                         0           
       0.528048           -0.000319377086                         0           
       0.528728             0.00074487209            0.000626384247           
       0.529407           -0.000319418872                         0           
       0.530086            -0.00031943961                         0           
       0.530765           -0.000319460377                         0           
       0.531444            0.000196410558            0.000318893731           
       0.532123           -0.000319502729                         0           
       0.532802           -0.000319523917                         0           
       0.533482           -0.000319545033                         0           
       0.534161           -0.000319566182                         0           
       0.534840            0.000264888372            0.000394146621           
       0.535519           -0.000319608507                         0           
       0.536198            0.000269156587            0.000398313294           
       0.536877           -0.000319650486                         0           
       0.537557           -0.000319671689                         0           
       0.538236           -0.000319693083                         0           
       0.538915           -0.000319714469                         0           
       0.539594           -0.000319735826                         0           
       0.540273           -0.000319757517                         0           
       0.540952           -0.000319778966                         0           
       0.541632           -0.000319800024                         0           
       0.542311           -0.000319821274                         0           
       0.542990           -0.000319842763                         0           
       0.543669            -0.00031986443                         0           
       0.544348           -0.000319886073                         0           
       0.545027           -0.000319907669                         0           
       0.545707            -0.00031992933                         0           
       0.546386           -0.000319951051                         0           
       0.547065           -0.000319972512                         0           
       0.547744           -0.000319994071                         0           
       0.548423           -0.000320015867                         0           
       0.549102           -0.000320037685                         0           
       0.549782           -0.000320059394                         0           
       0.550461           -0.000320081359                         0           
       0.551140           -0.000320103458                         0           
       0.551819           -0.000320125295                         0           
       0.552498           -0.000320147319                         0           
       0.553177           -0.000320168965                         0           
       0.553856            0.000571377813            0.000717607559           
       0.554536           -0.000320212483                         0           
       0.555215            -0.00032023461                         0           
       0.555894           -0.000320256685                         0           
       0.556573           -0.000320278891                         0           
       0.557252           -0.000320301079                         0           
       0.557931            0.000633066614            0.000779310742           
       0.558611           -0.000320345769                         0           
       0.559290           -0.000320367798                         0           
       0.559969           -0.000320389285                         0           
       0.560648           -0.000320411341                         0           
       0.561327           -0.000320433889                         0           
       0.562006           -0.000320456332                         0           
       0.562686           -0.000320478788                         0           
       0.563365              0.0006871665            0.000832375359           
       0.564044            0.000858950551             0.00102033641           
       0.564723           -0.000320546128                         0           
       0.565402             0.00201655989             0.00155565215           
       0.566081           -0.000320590191                         0           
       0.566761           -0.000320612533                         0           
       0.567440            -0.00032063533                         0           
       0.568119           -0.000320657946                         0           
       0.568798           -0.000320680881                         0           
       0.569477            0.000934760299               0.001081218           
       0.570156           -0.000320726566                         0           
       0.570836           -0.000320749377                         0           
       0.571515           -0.000320771706                         0           
       0.572194           -0.000320794683                         0           
       0.572873           -0.000320817134                         0           
       0.573552           -0.000320839452                         0           
       0.574231           -0.000320862224                         0           
       0.574911           -0.000320885569                         0           
       0.575590           -0.000320908465                         0           
       0.576269           -0.000320931291                         0           
       0.576948           -0.000320954556                         0           
       0.577627           -0.000320977111                         0           
       0.578306           -0.000320999985                         0           
       0.578985           -0.000321023053                         0           
       0.579665            -0.00032104599                         0           
       0.580344           -0.000321069273                         0           
       0.581023            -0.00032109253                         0           
       0.581702           -0.000321115573                         0           
       0.582381           -0.000321138406                         0           
       0.583060           -0.000321161921                         0           
       0.583740           -0.000321185066                         0           
       0.584419           -0.000321208288                         0           
       0.585098           -0.000321231483                         0           
       0.585777           -0.000321254858                         0           
       0.586456           -0.000321278613                         0           
       0.587135           -0.000321301737                         0           
       0.587815           -0.000321324611                         0           
       0.588494           -0.000321348198                         0           
       0.589173           -0.000321372327                         0           
       0.589852           -0.000321395173                         0           
       0.590531           -0.000321418881                         0           
       0.591210           -0.000321442042                         0           
       0.591890            -0.00032146565                         0           
       0.592569           -0.000321488468                         0           
       0.593248           -0.000321513415                         0           
       0.593927           -0.000321537134                         0           
       0.594606           -0.000321561341                         0           
       0.595285           -0.000321584105                         0           
       0.595965           -0.000321605348                         0           
       0.596644           -0.000321627208                         0           
