################################################################################
# EDF_DataBlockID                     0.Image.Psd
# EDF_BinarySize                      2105344
# EDF_HeaderSize                      2560
# ByteOrder                           LowByteFirst
# DataType                            FloatValue
# Dim_1                               512
# Dim_2                               1028
# Image                               0
# HeaderID                            EH:000000:000000:000000
# Size                                2105344
# Center_1                            304.9000
# Center_2                            588.7000
# Comment                             Xenocs_Cell_Window - 20251028_20perc_iodine_1.23mg
# DDummy                              0.6
# Date                                2025-10-30T15:12:09
# Delta                               21.910000
# Dummy                               -1.5
# ExposureTime                        360
# Gamma                               15.360000
# Intensity1                          8.44692e-10
# PSize_1                             7.5e-05
# PSize_2                             7.5e-05
# Pressure                            0.0326672
# SampleDistance                      0.115750
# SampleEnvKind                       large
# SampleEnvPN                         ElectroChemical cell
# SampleEnvSN                         1141
# Thickness                           0
# Wavelength                          1.541891e-10
# Wavelength                          1.54189e-10
# aux                                 0
# aux_dial                            0.002375
# beamx                               588.434
# beamx_dial                          588.434
# beamz                               657.808
# beamz_dial                          657.808
# det0x                               0
# det0x_dial                          6.36945
# det0xvd                             0
# det0xvd_dial                        0
# det0y                               450.002
# det0y_dial                          481.635
# det0z                               0
# det0z_dial                          1.23302
# det0zvd                             0
# det0zvd_dial                        0
# mag                                 1.818
# mag_dial                            1.818
# om                                  0.2499
# om_dial                             -0.610199
# phi                                 -0.0120535
# phi_dial                            0
# ry                                  0.599993
# ry_dial                             0.599993
# s1bot                               0.8
# s1bot_dial                          -1.66094
# s1hl                                0.8
# s1hl_dial                           -0.608437
# s1hr                                0.8
# s1hr_dial                           0.970938
# s1top                               0.8
# s1top_dial                          -0.461562
# s2bot                               0.45
# s2bot_dial                          1.36109
# s2hl                                0.45
# s2hl_dial                           -0.83375
# s2hr                                0.45
# s2hr_dial                           -0.118594
# s2top                               0.45
# s2top_dial                          1.44734
# w2theta                             32
# w2theta_dial                        32
# waxsch                              19.2605
# waxsch_dial                         -32.7355
# waxsh                               137.085
# waxsh_dial                          -43.5338
# waxsth                              26.0607
# waxsth_dial                         -19.4086
# waxsz                               67.0407
# waxsz_dial                          -23.7954
# wind                                65.9854
# wind_dial                           66.0041
# wpsi                                124
# wpsi_dial                           124
# wstod                               115
# wstod_dial                          115
# x                                   0
# x_dial                              1.00969
# z                                   0
# z_dial                              13.3172
# CountCutoff                         6807993
# DetectorModel                       Dectris EIGER2 Si 500K, S/N E-01-0554
# ThresholdSetting                    4023.88989258
# Saturation                          0
# FlatField                           Corrected
# BackgroundReductionExtra            0.02
# BackgroundCorrectionConstant        0.0026712
# Detector                            0
# Monitor                             0
# Pil_Roi0                            0
# SumForIntensity1                    3.04089e+08
# TransmittedFlux                     844692
# det                                 0
# mon                                 0
# pilai0                              3.04089e+08
# pilai1                              776157
# pilct0                              5.26348e+08
# pilct1                              776157
# pilroi0                             0
# pilroi1                             0
# sec                                 1
# title                               20251028_20perc_iodine_1.23mg_1_00444.edf
# usaxs0                              0
# Operation                           Azimuthal average I(q)
# Error_model                         ErrorModel.poisson
# Geometrical_correction              True
# Transmission_correction             True
# Thickness_correction                False
# Binning mode                        Uniform
# Binning factor                      1.0
# Psi                                 0.0
# Omega                               0.2499
# MaskInvalidPixels                   True
# DetectorEdge                        3
# MaskFiles                           ['WAXS_corrected.edf']
################################################################################
    q(A⁻¹)                Intensity(a.u.)            Sigma_I(a.u.)            
       0.693100             0.00416934647             0.00433110658           
       0.695741              0.0112341355             0.00580152845           
       0.698381             0.00847035625             0.00617072642           
       0.701021              0.0268193843              0.0155225133           
       0.703662              0.0056844595             0.00412497851           
       0.706302             0.00167335507             0.00173271968           
       0.708942             0.00570981778             0.00413110692           
       0.711583              0.0133780932             0.00547568194           
       0.714223              0.0058972655             0.00419726476           
       0.716864             0.00247687679             0.00177977053           
       0.719504             0.00743380112             0.00332724769           
       0.722144             0.00887187794             0.00336615617           
       0.724785             0.00887692248             0.00268589542           
       0.727425             0.00739831733             0.00331714465           
       0.730065             0.00660981757             0.00221785877           
       0.732706             0.00467380284             0.00156611298           
       0.735346             0.00618748578              0.0023489248           
       0.737987             0.00875380459             0.00197427434           
       0.740627             0.00880649839             0.00295458977           
       0.743267              0.0074751508              0.0018232562           
       0.745908             0.00788279877             0.00203135892           
       0.748548             0.00844102157             0.00193757438           
       0.751189             0.00812832195              0.0025619925           
       0.753829             0.00680840593             0.00215538687           
       0.756469              0.0043961826             0.00139660541           
       0.759110             0.00742174167             0.00191231447           
       0.761750             0.00807060262             0.00176327496           
       0.764390             0.00460831596             0.00139458069           
       0.767031              0.0056514515             0.00133737034           
       0.769671             0.00641343725             0.00177718136           
       0.772312             0.00480480054             0.00117104978           
       0.774952             0.00675851697             0.00187552603           
       0.777592             0.00713766521             0.00140388867           
       0.780233              0.0040267997             0.00127220872           
       0.782873             0.00697215287              0.0016010483           
       0.785513             0.00418110641             0.00132547143           
       0.788154             0.00698798959             0.00143345728           
       0.790794             0.00587810857             0.00157176085           
       0.793435             0.00541599974             0.00135536791           
       0.796075             0.00911588182             0.00169388292           
       0.798715             0.00701552324             0.00175600935           
       0.801356             0.00771024164             0.00158440681           
       0.803996             0.00744649304              0.0015874546           
       0.806637             0.00704228327             0.00122855438           
       0.809277             0.00629033853             0.00125677052           
       0.811917               0.006797485             0.00122132361           
       0.814558             0.00803631547             0.00138017758           
       0.817198             0.00664704505             0.00119252043           
       0.819838             0.00745467038             0.00127813861           
       0.822479             0.00725151974             0.00148029185           
       0.825119             0.00657364323             0.00119958111           
       0.827760             0.00947099481             0.00145853612           
       0.830400             0.00533955058             0.00103073482           
       0.833040             0.00608271753             0.00115259592           
       0.835681              0.0067545892             0.00138077468           
       0.838321             0.00655448974             0.00114163298           
       0.840961             0.00849968335             0.00141646036           
       0.843602             0.00949874435             0.00137317166           
       0.846242             0.00673158744               0.001155808           
       0.848883              0.0102277191             0.00145795165           
       0.851523             0.00729077752             0.00121565998           
       0.854163              0.0084824102              0.0013944534           
       0.856804             0.00811399474             0.00122627441           
       0.859444             0.00672673891              0.0010939892           
       0.862085             0.00578864378             0.00105772117           
       0.864725             0.00668982709              0.0011636819           
       0.867365              0.0067787804              0.0010862218           
       0.870006             0.00945061448             0.00122216724           
       0.872646             0.00936844119             0.00127602751           
       0.875286             0.00802001121             0.00113583923           
       0.877927             0.00674069899             0.00100481978           
       0.880567             0.00820646179             0.00114863476           
       0.883208             0.00535859517            0.000919429884           
       0.885848             0.00593147712             0.00100437942           
       0.888488             0.00774175722             0.00107624318           
       0.891129             0.00959770259             0.00123042873           
       0.893769             0.00635929657            0.000958519828           
       0.896410             0.00662580654            0.000912210572           
       0.899050             0.00728447316             0.00105186531           
       0.901690             0.00665661638             0.00109529617           
       0.904331             0.00895010954             0.00112596448           
       0.906971             0.00784912253              0.0011217484           
       0.909611             0.00847371984             0.00106100168           
       0.912252             0.00720963331             0.00101086177           
       0.914892             0.00759959693             0.00113413804           
       0.917533             0.00601170278            0.000954242702           
       0.920173             0.00701932545            0.000956673501           
       0.922813             0.00745908195              0.0010348909           
       0.925454             0.00801246129            0.000965840205           
       0.928094             0.00793319882             0.00102600308           
       0.930734             0.00537681547            0.000909380645           
       0.933375             0.00601002335            0.000951986322           
       0.936015             0.00819879353             0.00100984736           
       0.938656             0.00947623092             0.00116466937           
       0.941296             0.00682373977            0.000895686928           
       0.943936             0.00757206717            0.000925270008           
       0.946577             0.00790515784            0.000939151821           
       0.949217              0.0075286404            0.000842817174           
       0.951858             0.00630226981            0.000807211769           
       0.954498             0.00638148469            0.000940186971           
       0.957138              0.0080835152             0.00100246674           
       0.959779             0.00856925187              0.0010174842           
       0.962419              0.0082146501            0.000989583214           
       0.965059             0.00764099055             0.00100378414           
       0.967700             0.00855132473             0.00108759275           
       0.970340             0.00724367993             0.00088577605           
       0.972981             0.00762080255            0.000827768275           
       0.975621             0.00641163941            0.000807726362           
       0.978261             0.00872613962            0.000895354006           
       0.980902             0.00719997782             0.00097306954           
       0.983542             0.00824345709            0.000922047972           
       0.986182             0.00716282978            0.000843842612           
       0.988823              0.0091859019            0.000927897583           
       0.991463             0.00713803258             0.00087267062           
       0.994104             0.00821720211            0.000913392005           
       0.996744             0.00793295998            0.000915397286           
       0.999384              0.0087886718            0.000861695066           
       1.002025             0.00874092431            0.000959149416           
       1.004665             0.00837312564            0.000857904196           
       1.007306             0.00833987905            0.000851816791           
       1.009946              0.0078743659            0.000844140456           
       1.012586             0.00703663686            0.000777181019           
       1.015227             0.00791107376            0.000885295366           
       1.017867             0.00685718416            0.000792132842           
       1.020507             0.00875292142            0.000866886395           
       1.023148             0.00668849202            0.000817677842           
       1.025788             0.00789026614            0.000814321566           
       1.028429             0.00774345225            0.000845161364           
       1.031069             0.00850277081            0.000833412334           
       1.033709             0.00902699103            0.000912820666           
       1.036350             0.00653874837            0.000697756222           
       1.038990             0.00772254828            0.000772227105           
       1.041630             0.00730622968            0.000783429465           
       1.044271              0.0073615759            0.000739572349           
       1.046911             0.00863368511             0.00084247157           
       1.049552             0.00800783789            0.000852438969           
       1.052192             0.00742571212            0.000749558933           
       1.054832             0.00901555096            0.000833423454           
       1.057473             0.00786596122            0.000767413428           
       1.060113             0.00798421705            0.000754041732           
       1.062754             0.00897649463            0.000816301971           
       1.065394              0.0089831501            0.000863362082           
       1.068034             0.00804062138             0.00074318921           
       1.070675              0.0086714997            0.000805076517           
       1.073315             0.00800725558            0.000784716429           
       1.075955             0.00813637779            0.000746766362           
       1.078596             0.00975307126            0.000868944615           
       1.081236             0.00864646594            0.000783446055           
       1.083877             0.00815237187            0.000753907904           
       1.086517              0.0107484093            0.000928243103           
       1.089157              0.0085493985            0.000858998515           
       1.091798             0.00954246738            0.000795635487           
       1.094438             0.00868095848            0.000756421148           
       1.097078             0.00806412427            0.000699237244           
       1.099719             0.00949014047            0.000820484126           
       1.102359             0.00877173096            0.000738736985           
       1.105000             0.00784459496            0.000781177908           
       1.107640             0.00908696393            0.000803907073           
       1.110280             0.00880012217             0.00072183406           
       1.112921             0.00881149226            0.000775906623           
       1.115561             0.00828701171              0.0007151507           
       1.118202             0.00921967778            0.000755032234           
       1.120842             0.00846595964            0.000760415761           
       1.123482             0.00880116344            0.000771937373           
       1.126123             0.00821587634            0.000715374488           
       1.128763             0.00909167927            0.000757697847           
       1.131403             0.00796337289            0.000683302248           
       1.134044             0.00868782994             0.00073440628           
       1.136684             0.00910877188            0.000801749098           
       1.139325              0.0082041727            0.000700937609           
       1.141965             0.00862028066            0.000723243086           
       1.144605             0.00771611511            0.000652446613           
       1.147246             0.00859895345            0.000704887116           
       1.149886              0.0100413009            0.000759009653           
       1.152527              0.0101466889            0.000774077622           
       1.155167             0.00951402313            0.000712942507           
       1.157807             0.00859794892            0.000726669272           
       1.160448             0.00921048348            0.000734453346           
       1.163088             0.00889917921            0.000688619562           
       1.165728              0.0089758227            0.000710056766           
       1.168369             0.00994425113            0.000754285616           
       1.171009              0.0086623545            0.000683205197           
       1.173650             0.00975532339            0.000744050299           
       1.176290             0.00943435717             0.00071504255           
       1.178930             0.00989914568            0.000717862072           
       1.181571             0.00843091252            0.000675627593           
       1.184211              0.0101768983             0.00074492904           
       1.186851              0.0098416579            0.000716210253           
       1.189492             0.00905911342            0.000682523569           
       1.192132             0.00848486415            0.000653125915           
       1.194773             0.00993880221            0.000709961675           
       1.197413             0.00936775355            0.000660412518           
       1.200053             0.00979034815            0.000692298736           
       1.202694             0.00992219955            0.000662754726           
       1.205334             0.00991487229            0.000713978388           
       1.207975              0.0083247561            0.000624476396           
       1.210615              0.0101942603            0.000762343209           
       1.213255              0.0105239083            0.000693610453           
       1.215896             0.00871899973            0.000642774993           
       1.218536             0.00987531169             0.00065776334           
       1.221176              0.0100377241            0.000720980293           
       1.223817             0.00934772281            0.000653120551           
       1.226457              0.0112852472            0.000732079802           
       1.229098             0.00954310252            0.000673172743           
       1.231738             0.00982077066            0.000686256879           
       1.234378              0.0101118888            0.000654329235           
       1.237019                0.01033476            0.000681670323           
       1.239659                0.01015116            0.000669703096           
       1.242299             0.00941168701             0.00063665637           
       1.244940              0.0110530158            0.000671010559           
       1.247580              0.0116306389            0.000709370624           
       1.250221              0.0100763949             0.00065619958           
       1.252861              0.0101421973            0.000626741607           
       1.255501              0.0108197767            0.000702886222           
       1.258142              0.0101125176            0.000638535781           
       1.260782              0.0113951893            0.000692489333           
       1.263423              0.0104929084            0.000638517092           
       1.266063              0.0101535608             0.00064379188           
       1.268703              0.0096454951            0.000622271248           
       1.271344              0.0105912884            0.000674165477           
       1.273984              0.0109899577            0.000663251973           
       1.276624              0.0102696896            0.000629104365           
       1.279265              0.0109867174            0.000661501641           
       1.281905              0.0101449938            0.000638478155           
       1.284546              0.0105445937            0.000629184015           
       1.287186              0.0113128196            0.000639387538           
       1.289826              0.0107153896            0.000655827451           
       1.292467              0.0114417038             0.00066276314           
       1.295107              0.0102247669             0.00062030321           
       1.297747              0.0100936152            0.000589759486           
       1.300388              0.0108855213            0.000667656334           
       1.303028              0.0105552762             0.00062764185           
       1.305669              0.0116178431            0.000674154756           
       1.308309              0.0117657541            0.000671751668           
       1.310949               0.010595066            0.000636816098           
       1.313590              0.0106500694            0.000618509188           
       1.316230              0.0107353036             0.00066267111           
       1.318871             0.00991239785             0.00062363464           
       1.321511              0.0113453773            0.000654824672           
       1.324151              0.0113821816            0.000636441329           
       1.326792              0.0105823231            0.000617465709           
       1.329432              0.0105647487            0.000612599057           
       1.332072              0.0117724174             0.00063702802           
       1.334713              0.0102129875            0.000612383626           
       1.337353              0.0109963079            0.000609394112           
       1.339994              0.0122871527            0.000675992151           
       1.342634                0.01090714            0.000610747412           
       1.345274              0.0107236849            0.000626728045           
       1.347915               0.010685593            0.000608337695           
       1.350555              0.0115886112            0.000644616527           
       1.353195              0.0111604432             0.00063570302           
       1.355836              0.0114629537            0.000634214932           
       1.358476              0.0122421115             0.00063650745           
       1.361117              0.0108166972            0.000599126286           
       1.363757              0.0106571911            0.000612851102           
       1.366397              0.0114166766             0.00061511768           
       1.369038              0.0113981122            0.000620737247           
       1.371678              0.0108427987            0.000600089874           
       1.374319              0.0112522053            0.000606050177           
       1.376959              0.0101375183            0.000569463608           
       1.379599              0.0108720237            0.000632015067           
       1.382240              0.0112959107            0.000605468224           
       1.384880              0.0102219997            0.000610081415           
       1.387520             0.00988616464            0.000569815593           
       1.390161              0.0114280956            0.000581863501           
       1.392801              0.0106338395            0.000584798905           
       1.395442              0.0117033445            0.000621881765           
       1.398082              0.0106375044            0.000555213833           
       1.400722              0.0116874998             0.00060960107           
       1.403363              0.0128022539            0.000671584039           
       1.406003              0.0112502291            0.000589184556           
       1.408644              0.0108624673            0.000606479188           
       1.411284               0.012089004            0.000605837582           
       1.413924                 0.0112026            0.000581041737           
       1.416565              0.0122118407            0.000604267394           
       1.419205              0.0109004267            0.000595540213           
       1.421845              0.0110719448            0.000599854904           
       1.424486               0.011613451            0.000590530263           
       1.427126              0.0101353707            0.000573081036           
       1.429767              0.0107152491            0.000554409766           
       1.432407              0.0115802449            0.000603166949           
       1.435047              0.0106865753            0.000544177136           
       1.437688             0.00999485651              0.0005341395           
       1.440328              0.0106679145            0.000563205587           
       1.442968              0.0119448752            0.000609314065           
       1.445609              0.0109150893            0.000563980127           
       1.448249              0.0107444004            0.000573720531           
       1.450890              0.0107581891            0.000570341498           
       1.453530              0.0115111961            0.000617221145           
       1.456170              0.0111137238             0.00058859478           
       1.458811              0.0110101635            0.000560198431           
       1.461451              0.0111938592            0.000566334078           
       1.464092              0.0113742221            0.000574610721           
       1.466732              0.0115275978            0.000573500962           
       1.469372               0.011312811            0.000554836933           
       1.472013              0.0104297749            0.000574573724           
       1.474653               0.011095809            0.000583493503           
       1.477293             0.00969395827            0.000556884926           
       1.479934              0.0102977159            0.000547682429           
       1.482574              0.0108483598            0.000543777496           
       1.485215              0.0109958711            0.000557658645           
       1.487855              0.0108828284            0.000562103269           
       1.490495              0.0101073462            0.000539711126           
       1.493136              0.0106709552            0.000546953556           
       1.495776              0.0107068747            0.000545378685           
       1.498416             0.00973591908            0.000537077143           
       1.501057              0.0104414758            0.000543939861           
       1.503697              0.0116408569            0.000561500368           
       1.506338              0.0110010387            0.000555826001           
       1.508978              0.0108612814             0.00054685278           
       1.511618             0.00998383558            0.000558375327           
       1.514259              0.0106024452            0.000555535394           
       1.516899              0.0107485882            0.000544622466           
       1.519540             0.00976446848            0.000527462511           
       1.522180             0.00962101734             0.00052817299           
       1.524820              0.0109105445            0.000559300806           
       1.527461                0.01042127            0.000549319661           
       1.530101              0.0105615248            0.000547473187           
       1.532741              0.0109316207            0.000553750465           
       1.535382             0.00999250585            0.000537953776           
       1.538022              0.0110191248             0.00053217763           
       1.540663              0.0114338598            0.000583062144           
       1.543303              0.0106118709            0.000521559586           
       1.545943             0.00956665909            0.000524141646           
       1.548584              0.0100073822            0.000545701911           
       1.551224              0.0098155979            0.000499694901           
       1.553864              0.0096122387            0.000522522648           
       1.556505              0.0105425466            0.000528633127           
       1.559145              0.0101148164            0.000524141271           
       1.561786              0.0090485888            0.000496128445           
       1.564426              0.0103864277            0.000515007919           
       1.567066               0.011054329            0.000556709597           
       1.569707             0.00923563791            0.000499716572           
       1.572347             0.00946326485            0.000522580442           
       1.574988              0.0105264828            0.000524607809           
       1.577628               0.010399114            0.000543716992           
       1.580268             0.00980496249            0.000511533106           
       1.582909              0.0110004303            0.000574308423           
       1.585549             0.00960951404            0.000521189906           
       1.588189              0.0100702667            0.000521893827           
       1.590830             0.00984090054            0.000515268586           
       1.593470             0.00937243162            0.000522765522           
       1.596111             0.00900516357            0.000500281713           
       1.598751               0.010026812            0.000511515755           
       1.601391             0.00918294332            0.000500317962           
       1.604032             0.00965776924            0.000523816237           
       1.606672             0.00906544998            0.000493083499           
       1.609312              0.0096394257            0.000530766143           
       1.611953             0.00913095495            0.000505503571           
       1.614593             0.00921848595            0.000498229997           
       1.617234             0.00871195343            0.000501967387           
       1.619874              0.0103103459            0.000543920436           
       1.622514             0.00844279397            0.000485485941           
       1.625155             0.00897567188            0.000503529698           
       1.627795             0.00896159817            0.000490807076           
       1.630436             0.00901396025            0.000489668557           
       1.633076             0.00883776742             0.00049121837           
       1.635716             0.00852408864            0.000474916132           
       1.638357             0.00918247501            0.000494215142           
       1.640997             0.00900374471            0.000504206101           
       1.643637             0.00905802885            0.000492126222           
       1.646278             0.00893929663            0.000504251177           
       1.648918             0.00863287378            0.000496885195           
       1.651559             0.00870951569            0.000502959619           
       1.654199             0.00868789693            0.000488564919           
       1.656839             0.00859389483            0.000486084238           
       1.659480             0.00846500756            0.000500541411           
       1.662120             0.00892413902            0.000484043562           
       1.664761             0.00813011288            0.000479907145           
       1.667401             0.00854070744            0.000470128374           
       1.670041             0.00804963624            0.000463371907           
       1.672682             0.00933911401            0.000497056444           
       1.675322              0.0083643898            0.000467377994           
       1.677962             0.00863436539            0.000469622499           
       1.680603             0.00876817131            0.000474703656           
       1.683243             0.00942796884            0.000513560911           
       1.685884             0.00924099166             0.00051219756           
       1.688524             0.00908913919            0.000498152624           
       1.691164             0.00867498507              0.0004867814           
       1.693805             0.00790612046            0.000469814269           
       1.696445             0.00951760063            0.000518465865           
       1.699085             0.00889390685            0.000484396425           
       1.701726              0.0082764821            0.000450143059           
       1.704366             0.00785584137             0.00046200562           
       1.707007             0.00917236052            0.000488091272           
       1.709647             0.00858435131            0.000477519666           
       1.712287              0.0088893361             0.00049015793           
       1.714928              0.0090751306            0.000499246824           
       1.717568              0.0088433269            0.000464247358           
       1.720209             0.00899014492            0.000490286822           
       1.722849             0.00876211801            0.000481540603           
       1.725489             0.00842013174            0.000472446163           
       1.728130             0.00877285018            0.000512485994           
       1.730770             0.00879440234            0.000487321459           
       1.733410             0.00900398445            0.000485343063           
       1.736051              0.0086489947            0.000478990268           
       1.738691             0.00926373584            0.000485671689           
       1.741332             0.00819389135            0.000470123261           
       1.743972             0.00802459327            0.000480440531           
       1.746612             0.00856192364            0.000476541082           
       1.749253             0.00878949864            0.000492367921           
       1.751893             0.00864598167            0.000484747186           
       1.754533             0.00857181939             0.00048221296           
       1.757174             0.00915598502             0.00049370645           
       1.759814             0.00859283361            0.000471032638           
       1.762455             0.00869285817            0.000482465575           
       1.765095              0.0081556193             0.00044704751           
       1.767735             0.00859634806            0.000473126933           
       1.770376             0.00875925289            0.000478847938           
       1.773016             0.00911377185            0.000485170467           
       1.775657             0.00802306787            0.000448663992           
       1.778297             0.00830371851            0.000452513401           
       1.780937             0.00870476262            0.000489025707           
       1.783578             0.00885264738            0.000480831084           
       1.786218              0.0089457253            0.000504430939           
       1.788858             0.00818381596            0.000458231721           
       1.791499             0.00871474004             0.00046755135           
       1.794139             0.00851532081            0.000458421229           
       1.796780              0.0100719333            0.000496160147           
       1.799420             0.00945301542            0.000478012156           
       1.802060              0.0095324078            0.000483892509           
       1.804701             0.00880014119            0.000446172959           
       1.807341             0.00972636858             0.00049288615           
       1.809981             0.00930440947            0.000483683428           
       1.812622             0.00945692775            0.000478852644           
       1.815262             0.00969858349            0.000495233261           
       1.817903             0.00829358279             0.00045117363           
       1.820543             0.00902814052            0.000478064918           
       1.823183             0.00985974324            0.000499323153           
       1.825824             0.00889120907            0.000452997845           
       1.828464              0.0100916705            0.000503142878           
       1.831105             0.00931010973            0.000469905762           
       1.833745             0.00902941619            0.000472651198           
       1.836385             0.00872666552            0.000477920458           
       1.839026             0.00883080119            0.000479244576           
       1.841666             0.00892596594            0.000480111436           
       1.844306             0.00919769801            0.000474066653           
       1.846947             0.00832684595            0.000455019931           
       1.849587             0.00899993163            0.000522365141           
       1.852228             0.00892687645            0.000470426534           
       1.854868             0.00903560381            0.000499953184           
       1.857508             0.00853158274            0.000481044231           
       1.860149             0.00911575599            0.000506274718           
       1.862789             0.00901673146            0.000486010713           
       1.865429             0.00910172678            0.000509706321           
       1.868070             0.00900257652            0.000500166072           
       1.870710             0.00860564591            0.000477741374           
       1.873351             0.00893309253            0.000492762886           
       1.875991             0.00870774793            0.000494447925           
       1.878631             0.00925269632            0.000499923333           
       1.881272             0.00835141812            0.000471769304           
       1.883912             0.00863389476            0.000499208893           
       1.886553             0.00936751456            0.000514171928           
       1.889193             0.00911375365            0.000506293227           
       1.891833              0.0089679893            0.000521583477           
       1.894474             0.00926994875            0.000525673539           
       1.897114             0.00867922225            0.000492208635           
       1.899754             0.00951869808            0.000517619861           
       1.902395             0.00911774523             0.00049669616           
       1.905035             0.00906342877            0.000524515139           
       1.907676             0.00837947841             0.00047533848           
       1.910316             0.00783785823            0.000471926116           
       1.912956             0.00918913374            0.000499748382           
       1.915597             0.00897222235            0.000496574689           
       1.918237             0.00985301358            0.000537424077           
       1.920878             0.00915221605            0.000515839047           
       1.923518             0.00954670509            0.000527062436           
       1.926158             0.00864278185            0.000494982207           
       1.928799             0.00974465977            0.000519505024           
       1.931439             0.00864307906            0.000502093881           
       1.934079             0.00874618104            0.000526533165           
       1.936720             0.00954832747            0.000509728824           
       1.939360             0.00892458053            0.000525747365           
       1.942001             0.00907290771            0.000485862289           
       1.944641             0.00770731919            0.000456628571           
       1.947281              0.0100172951            0.000515780563           
       1.949922             0.00945136536            0.000517487835           
       1.952562             0.00785820087            0.000486652167           
       1.955202             0.00875851265            0.000513147913           
       1.957843             0.00843815754            0.000490614167           
       1.960483             0.00857021095            0.000516934485           
       1.963124             0.00912022558            0.000522324193           
       1.965764              0.0087444833             0.00048231306           
       1.968404             0.00791819592            0.000454623809           
       1.971045             0.00808505436            0.000468371171           
       1.973685             0.00863193881            0.000507630188           
       1.976326             0.00899728859            0.000511138822           
       1.978966             0.00824612454            0.000493631271           
       1.981606              0.0091075755            0.000529594471           
       1.984247             0.00826345985            0.000501139125           
       1.986887             0.00801126628            0.000487521958           
       1.989527             0.00776945936            0.000474937592           
       1.992168             0.00824558824            0.000507663044           
       1.994808             0.00767588505            0.000487711862           
       1.997449             0.00854687049             0.00050407005           
       2.000089             0.00841105913            0.000498066598           
       2.002729             0.00831888582            0.000495626993           
       2.005370             0.00817468991            0.000486026351           
       2.008010             0.00831007946            0.000511421366           
       2.010650             0.00852334658            0.000521807067           
       2.013291             0.00866709676            0.000504849151           
       2.015931             0.00848746402            0.000496058501           
       2.018572             0.00828079909            0.000524081991           
       2.021212             0.00808257864            0.000508468771           
       2.023852             0.00902202879            0.000508440835           
       2.026493             0.00827531139            0.000508701367           
       2.029133              0.0073253763            0.000468982683           
       2.031774              0.0080691476            0.000516569683           
       2.034414             0.00759059909            0.000461005929           
       2.037054             0.00717870291            0.000459686997           
       2.039695             0.00761855714            0.000469984038           
       2.042335             0.00835764113            0.000511559205           
       2.044975             0.00803654225            0.000495552488           
       2.047616             0.00882332609            0.000517953834           
       2.050256             0.00720581323            0.000472505682           
       2.052897             0.00754288092             0.00049234295           
       2.055537             0.00816374071            0.000495026529           
       2.058177             0.00814330411            0.000484157312           
       2.060818              0.0080790119            0.000505186149           
       2.063458             0.00832103187            0.000534281359           
       2.066098             0.00823058115            0.000501259505           
       2.068739             0.00830694315            0.000511407071           
       2.071379             0.00741414714            0.000495744687           
       2.074020             0.00849540676            0.000519131111           
       2.076660             0.00772333353            0.000498981064           
       2.079300             0.00723728623            0.000494860009           
       2.081941             0.00811219565            0.000479707025           
       2.084581                0.00824348            0.000510416163           
       2.087222             0.00717269149            0.000459165652           
       2.089862             0.00810630533            0.000531653312           
       2.092502             0.00688460379            0.000474941785           
       2.095143             0.00716804321             0.00050044249           
       2.097783             0.00686746327            0.000474245162           
       2.100423             0.00806116007            0.000495104321           
       2.103064             0.00716900311            0.000484475347           
       2.105704             0.00857852312            0.000527341613           
       2.108345             0.00793722136            0.000487329336           
       2.110985             0.00754311317            0.000507416165           
       2.113625             0.00742881756            0.000507951494           
       2.116266             0.00815193791            0.000539648708           
       2.118906             0.00703651805            0.000467250116           
       2.121546             0.00763219193            0.000477334644           
       2.124187             0.00798076388            0.000512368101           
       2.126827             0.00695938748            0.000483799664           
       2.129468             0.00777567033            0.000512692415           
       2.132108              0.0075816096            0.000492546859           
       2.134748             0.00691986688            0.000468735093           
       2.137389             0.00814808727            0.000530632884           
       2.140029              0.0073565722            0.000451391895           
       2.142670             0.00778436402            0.000496240425           
       2.145310             0.00842141604            0.000502374804           
       2.147950             0.00743348379            0.000485804868           
       2.150591               0.007126503            0.000470860829           
       2.153231              0.0074504131            0.000495570292           
       2.155871             0.00802821047            0.000496971502           
       2.158512             0.00798250062             0.00051707618           
       2.161152             0.00770621486            0.000492127967           
       2.163793             0.00782139809            0.000493560188           
       2.166433             0.00808098185            0.000515176309           
       2.169073             0.00812897213            0.000505200194           
       2.171714             0.00779111471            0.000490892885           
       2.174354             0.00770027881            0.000509938806           
       2.176995              0.0073411659            0.000495810928           
       2.179635             0.00704638326            0.000513304005           
       2.182275             0.00694030601            0.000480978674           
       2.184916             0.00807201377            0.000501009762           
       2.187556             0.00741049168            0.000475230082           
       2.190196             0.00725238219            0.000491282671           
       2.192837             0.00776134095            0.000505463867           
       2.195477             0.00714537042            0.000462381772           
       2.198118             0.00761882472            0.000489688947           
       2.200758             0.00761865951            0.000502385689           
       2.203398             0.00775284961            0.000510032843           
       2.206039             0.00781060473            0.000484497527           
       2.208679             0.00793829778            0.000499809319           
       2.211319              0.0071494577            0.000477061263           
       2.213960             0.00762749954            0.000499354401           
       2.216600             0.00699502427            0.000494690457           
       2.219241             0.00758668735            0.000492379694           
       2.221881             0.00683619035            0.000468352813           
       2.224521             0.00848531942            0.000528189293           
       2.227162             0.00788830835            0.000499072469           
       2.229802             0.00742930576            0.000499496536           
       2.232443             0.00718856877            0.000483587311           
       2.235083             0.00740885799            0.000505422433           
       2.237723             0.00740340496            0.000484847678           
       2.240364             0.00612803558            0.000451980511           
       2.243004             0.00781300212            0.000506276036           
       2.245644             0.00677727012            0.000476245875           
       2.248285             0.00752768648            0.000491865158           
       2.250925             0.00703809332            0.000478490141           
       2.253566             0.00683823444            0.000504227213           
       2.256206             0.00736339008            0.000512768634           
       2.258846             0.00754305365            0.000493699818           
       2.261487             0.00762616324            0.000521030619           
       2.264127             0.00786941899            0.000511165595           
       2.266767             0.00769299521            0.000518868555           
       2.269408              0.0073188023            0.000508164642           
       2.272048             0.00717737866            0.000500227127           
       2.274689             0.00705389239            0.000502439482           
       2.277329             0.00682712624            0.000465412841           
       2.279969             0.00659348827            0.000486854642           
       2.282610             0.00737160624            0.000500463827           
       2.285250             0.00681732385            0.000460651183           
       2.287891             0.00716752773            0.000506414194           
       2.290531             0.00684166398            0.000501419527           
       2.293171             0.00655937666            0.000478245544           
       2.295812             0.00663207567            0.000478955483           
       2.298452             0.00680664967            0.000507409326           
       2.301092             0.00800910132            0.000511395371           
       2.303733             0.00762797013            0.000519216617           
       2.306373             0.00594337183            0.000465528993           
       2.309014             0.00696099569            0.000493980873           
       2.311654             0.00683326757            0.000510741172           
       2.314294             0.00684658363            0.000471005984           
       2.316935             0.00728326576            0.000487801467           
       2.319575             0.00868745609            0.000558202391           
       2.322215             0.00720715759            0.000529865282           
       2.324856             0.00694557352            0.000478233791           
       2.327496              0.0074101663            0.000525244748           
       2.330137             0.00687834082            0.000484247708           
       2.332777             0.00629019123            0.000477486641           
       2.335417             0.00685832604            0.000483701058           
       2.338058             0.00741083345            0.000517827166           
       2.340698             0.00772236039            0.000524445052           
       2.343339             0.00833160878            0.000556727676           
       2.345979             0.00743100893            0.000497427645           
       2.348619             0.00745230174            0.000516348593           
       2.351260             0.00657973819            0.000482352333           
       2.353900             0.00685146952            0.000490652486           
       2.356540             0.00679868409            0.000488064972           
       2.359181             0.00684487531            0.000482854526           
       2.361821             0.00765560732            0.000493274318           
       2.364462             0.00731108467            0.000504161083           
       2.367102             0.00715242941            0.000512453707           
       2.369742             0.00732640374            0.000545913552           
       2.372383             0.00736990009            0.000495788585           
       2.375023             0.00711902572            0.000512233825           
       2.377663             0.00696548581            0.000484460384           
       2.380304               0.007214791            0.000501275032           
       2.382944             0.00726774987             0.00047919771           
       2.385585             0.00790300441            0.000532940516           
       2.388225             0.00626867416            0.000472416366           
       2.390865             0.00708406556            0.000497043189           
       2.393506             0.00775627292            0.000510278926           
       2.396146             0.00723591282            0.000532907602           
       2.398787             0.00763406632            0.000504446518           
       2.401427             0.00767083283            0.000488078277           
       2.404067             0.00675439321            0.000468211556           
       2.406708             0.00688340884             0.00046699407           
       2.409348             0.00691099231            0.000496330044           
       2.411988             0.00690958758            0.000486244222           
       2.414629             0.00655172592            0.000488231171           
       2.417269             0.00740543755            0.000525126747           
       2.419910             0.00795080186            0.000545382044           
       2.422550             0.00746520252            0.000505602654           
       2.425190             0.00631695185            0.000490259443           
       2.427831              0.0062115438             0.00048341904           
       2.430471             0.00803129466            0.000523684603           
       2.433112             0.00686242135            0.000471376985           
       2.435752             0.00751295917             0.00052197416           
       2.438392             0.00678254774            0.000478695328           
       2.441033             0.00622130311            0.000485877674           
       2.443673             0.00709905863            0.000519422063           
       2.446313             0.00730546959            0.000527383849           
       2.448954              0.0063138229            0.000466820229           
       2.451594             0.00697516096            0.000527574072           
       2.454235             0.00740473931            0.000510014176           
       2.456875              0.0076483268            0.000542364244           
       2.459515             0.00760999312            0.000555008501           
       2.462156             0.00863373789            0.000558139804           
       2.464796             0.00771094173            0.000520664181           
       2.467436              0.0072133902            0.000520767136           
       2.470077             0.00806297238            0.000521851121           
       2.472717             0.00756248538            0.000507584694           
       2.475358             0.00750158564             0.00051080807           
       2.477998              0.0078956382            0.000515217767           
       2.480638             0.00796856397            0.000526788751           
       2.483279             0.00825520486            0.000560393287           
       2.485919             0.00639121919            0.000475199107           
       2.488560             0.00681435227            0.000489306366           
       2.491200             0.00708554981            0.000513784658           
       2.493840              0.0072943529            0.000551603685           
       2.496481             0.00665376036            0.000518208457           
       2.499121             0.00808822019            0.000555722944           
       2.501761             0.00725251568            0.000533202997           
       2.504402             0.00768225832            0.000540755409           
       2.507042             0.00768271416            0.000536765458           
       2.509683             0.00759620401            0.000525577479           
       2.512323             0.00725240512            0.000539351026           
       2.514963             0.00710712632            0.000527325292           
       2.517604             0.00713008296            0.000548064097           
       2.520244             0.00673553611            0.000499392791           
       2.522884             0.00803523278             0.00055325105           
       2.525525             0.00800125451            0.000558346272           
       2.528165             0.00700474459            0.000514277786           
       2.530806             0.00872652105            0.000584018795           
       2.533446             0.00987069166            0.000607868952           
       2.536086             0.00761704331            0.000529206025           
       2.538727             0.00809099317            0.000523249303           
       2.541367             0.00699688112            0.000491379532           
       2.544008             0.00741620895            0.000522460517           
       2.546648             0.00704630613            0.000517999573           
       2.549288             0.00765779989            0.000551011699           
       2.551929             0.00629425825            0.000491589503           
       2.554569             0.00686390808            0.000494572588           
       2.557209             0.00674714359             0.00049485111           
       2.559850              0.0072557298            0.000514810623           
       2.562490             0.00807577864            0.000561348021           
       2.565131             0.00701874517            0.000542604736           
       2.567771              0.0073684196            0.000536025791           
       2.570411              0.0073559895            0.000529778645           
       2.573052              0.0069182816            0.000520245337           
       2.575692             0.00672558126            0.000509842608           
       2.578332             0.00705039185            0.000524167462           
       2.580973             0.00664911275            0.000504188954           
       2.583613             0.00724262524            0.000513680905           
       2.586254             0.00664899531            0.000491495383           
       2.588894             0.00653510702            0.000506004431           
       2.591534             0.00726888849            0.000552434831           
       2.594175             0.00747361516            0.000549589882           
       2.596815             0.00752267897            0.000554642079           
       2.599456             0.00772576464            0.000533016817           
       2.602096             0.00690310727              0.0005076742           
       2.604736             0.00653403931            0.000505628479           
       2.607377             0.00693291775            0.000507107566           
       2.610017             0.00734245579             0.00051273794           
       2.612657             0.00846809428            0.000585688494           
       2.615298             0.00784068301            0.000550225326           
       2.617938             0.00738068988            0.000571073681           
       2.620579               0.007411385            0.000549363759           
       2.623219             0.00661989391            0.000518461266           
       2.625859             0.00704631007            0.000520071732           
       2.628500             0.00693998632            0.000512750015           
       2.631140             0.00678595607            0.000514840383           
       2.633780             0.00769492635            0.000547761635           
       2.636421             0.00806654357            0.000574624374           
       2.639061             0.00662900602            0.000490378939           
       2.641702             0.00773603535            0.000542008873           
       2.644342             0.00684433431            0.000511987509           
       2.646982             0.00698919486            0.000509642585           
       2.649623             0.00709723859            0.000538197258           
       2.652263             0.00684473643            0.000523232848           
       2.654904             0.00697143191             0.00052858438           
       2.657544             0.00782939744            0.000527619186           
       2.660184             0.00552230484            0.000468944863           
       2.662825             0.00708316255            0.000543420054           
       2.665465             0.00713378198            0.000527451358           
       2.668105             0.00767371337            0.000576609365           
       2.670746             0.00732014632            0.000520248113           
       2.673386              0.0094001061            0.000607573455           
       2.676027              0.0112692966            0.000654567085           
       2.678667              0.0092598429            0.000578956767           
       2.681307              0.0106064849             0.00060881839           
       2.683948              0.0130292883            0.000693305443           
       2.686588              0.0106514634            0.000616462056           
       2.689229             0.00989502916            0.000580597726           
       2.691869              0.0091120668            0.000588856357           
       2.694509             0.00803380226            0.000553222791           
       2.697150             0.00859185349            0.000562832475           
       2.699790             0.00622866825            0.000502391454           
       2.702430              0.0068534488            0.000503735443           
       2.705071             0.00753336259            0.000545724593           
       2.707711             0.00727675084            0.000520567339           
       2.710352             0.00693735585            0.000537064069           
       2.712992               0.006992677            0.000549171038           
       2.715632              0.0073546313            0.000522542313           
       2.718273             0.00696734091            0.000527093247           
       2.720913             0.00652413643            0.000508601889           
       2.723553             0.00674093217            0.000520451904           
       2.726194             0.00710775634             0.00055865044           
       2.728834             0.00719957327            0.000562510932           
       2.731475              0.0082646893            0.000556226013           
       2.734115             0.00695173813            0.000525966788           
       2.736755             0.00796920814            0.000567778791           
       2.739396             0.00569965668            0.000477388965           
       2.742036             0.00793542206            0.000589520109           
       2.744677             0.00704540921            0.000538966609           
       2.747317             0.00681838014            0.000526430957           
       2.749957             0.00662290633             0.00052247111           
       2.752598             0.00750044017            0.000562042507           
       2.755238             0.00766427983            0.000578404329           
       2.757878             0.00690124272            0.000544058589           
       2.760519             0.00817965231            0.000586030108           
       2.763159             0.00830505783            0.000584604289           
       2.765800             0.00776948896            0.000538855954           
       2.768440             0.00754040739            0.000534763227           
       2.771080              0.0083514826            0.000567487076           
       2.773721             0.00779050885            0.000562235404           
       2.776361             0.00662897119            0.000525785871           
       2.779001             0.00696683818            0.000558208318           
       2.781642             0.00639284534            0.000530778292           
       2.784282             0.00763328433            0.000589529043           
       2.786923             0.00677445796             0.00056026552           
       2.789563             0.00630468806            0.000520556262           
       2.792203             0.00649909925            0.000504888723           
       2.794844             0.00583649388            0.000524383701           
       2.797484             0.00749658318            0.000560873067           
       2.800125             0.00788777648            0.000604950199           
       2.802765             0.00653126381            0.000541009129           
       2.805405             0.00743981608            0.000579368016           
       2.808046              0.0064870434            0.000550509955           
       2.810686              0.0063447914            0.000500277536           
       2.813326              0.0067236961            0.000534941804           
       2.815967             0.00702399431            0.000562303168           
       2.818607             0.00716025181            0.000541771004           
       2.821248              0.0072266324            0.000532976819           
       2.823888             0.00737045099            0.000558721428           
       2.826528             0.00710221118            0.000531156567           
       2.829169             0.00747965192            0.000570948914           
       2.831809             0.00648076555            0.000538687934           
       2.834449             0.00684364622            0.000557062399           
       2.837090             0.00607574999            0.000506950826           
       2.839730             0.00750604946            0.000560719926           
       2.842371             0.00684699254            0.000536310807           
       2.845011             0.00733769309            0.000559621543           
       2.847651             0.00776356962            0.000576339561           
       2.850292             0.00627436738            0.000523207696           
       2.852932             0.00745909031            0.000582901473           
       2.855573              0.0065969808            0.000531752069           
       2.858213             0.00809255631            0.000618470375           
       2.860853             0.00677634434            0.000526458314           
       2.863494             0.00550880355             0.00049145808           
       2.866134             0.00751828005            0.000596746375           
       2.868774             0.00694942604            0.000563855676           
       2.871415             0.00612829312            0.000537744375           
       2.874055             0.00656481709            0.000532008814           
       2.876696             0.00718754007            0.000571726924           
       2.879336             0.00770830564            0.000570648102           
       2.881976              0.0066430228            0.000546401636           
       2.884617             0.00741048182            0.000568626068           
       2.887257             0.00713221447            0.000560727185           
       2.889897             0.00810885643            0.000585582044           
       2.892538             0.00695448676            0.000594092836           
       2.895178              0.0068784648            0.000533781674           
       2.897819             0.00719261747            0.000556803863           
       2.900459             0.00762152178            0.000562015055           
       2.903099             0.00735520248            0.000546457026           
       2.905740             0.00636272151            0.000521402877           
       2.908380             0.00835986105            0.000604447051           
       2.911021             0.00596035204            0.000518679199           
       2.913661             0.00703784645            0.000563446438           
       2.916301             0.00608933637            0.000524604112           
       2.918942             0.00715165303            0.000543808593           
       2.921582             0.00637130227            0.000537041981           
       2.924222             0.00577322652            0.000495268835           
       2.926863             0.00747690997            0.000587083912           
       2.929503             0.00754226476            0.000596629913           
       2.932144             0.00682980467            0.000545006704           
       2.934784             0.00656119176            0.000525422726           
       2.937424             0.00661715367            0.000533076063           
       2.940065             0.00577955907            0.000475232668           
       2.942705             0.00823236459            0.000566468844           
       2.945346             0.00693292428            0.000551684678           
       2.947986             0.00661884625            0.000549637861           
       2.950626              0.0071220579            0.000566938698           
       2.953267             0.00769026599            0.000579601751           
       2.955907             0.00685704001            0.000567751021           
       2.958547             0.00728493831            0.000552456538           
       2.961188             0.00697133644            0.000563824252           
       2.963828             0.00685207257            0.000546786325           
       2.966469             0.00617408055            0.000509167046           
       2.969109              0.0070470644            0.000552033959           
       2.971749             0.00597740058            0.000505242751           
       2.974390             0.00718518951            0.000544347792           
       2.977030             0.00650916158             0.00052968628           
       2.979670               0.008520917            0.000589487978           
       2.982311             0.00809136208            0.000595375317           
       2.984951             0.00649324734            0.000507261233           
       2.987592             0.00689076219            0.000533024196           
       2.990232             0.00835643548            0.000610453609           
       2.992872             0.00719239172            0.000533462194           
       2.995513             0.00901411479            0.000584269906           
       2.998153              0.0109125953            0.000653660257           
       3.000794              0.0141875298            0.000721916784           
       3.003434              0.0117131039            0.000656938901           
       3.006074               0.052732826             0.00137435652           
       3.008715               0.130202727             0.00208467009           
       3.011355               0.174867778             0.00232972537           
       3.013995               0.087050548             0.00164822156           
       3.016636               0.062216584             0.00136449108           
       3.019276               0.125904471             0.00190801913           
       3.021917               0.497794065             0.00364802827           
       3.024557                1.71955881             0.00666610014           
       3.027197                1.13926557             0.00529001583           
       3.029838               0.508425355             0.00358405846           
       3.032478               0.265622702             0.00259319656           
       3.035118              0.0743540031             0.00139040975           
       3.037759                0.10157606             0.00162302651           
       3.040399               0.142197252             0.00198086687           
       3.043040               0.555653655             0.00396371773           
       3.045680               0.383414239             0.00309783945           
       3.048320              0.0807298138             0.00145240899           
       3.050961               0.112442068             0.00174430369           
       3.053601              0.0867919312              0.0014759727           
       3.056242              0.0614951063              0.0013209275           
       3.058882              0.0569086071             0.00136309839           
       3.061522              0.0465730202             0.00120983796           
       3.064163              0.0567099552             0.00131821463           
       3.066803               0.115670172               0.001982014           
       3.069443                0.11413165             0.00205985718           
       3.072084               0.041932174             0.00121575952           
       3.074724              0.0372572231             0.00127980444           
       3.077365              0.0827273143             0.00197413304           
       3.080005              0.0139496918            0.000815245179           
       3.082645               0.012021886            0.000795056427           
       3.085286              0.0132239299            0.000840436504           
       3.087926              0.0114154151               0.000774837           
       3.090566              0.0113440671            0.000756814466           
       3.093207              0.0106058679            0.000761488613           
       3.095847             0.00838541817            0.000648989752           
       3.098488              0.0086973971            0.000732882991           
       3.101128              0.0100822051             0.00079414864           
       3.103768              0.0094498657            0.000754376926           
       3.106409             0.00968274525            0.000812692474           
       3.109049             0.00908339258            0.000755377616           
       3.111690             0.00873001349            0.000727825584           
       3.114330              0.0076957286            0.000697889567           
       3.116970             0.00873673991             0.00074930381           
       3.119611              0.0139055378             0.00100622681           
       3.122251              0.0211547751             0.00129823054           
       3.124891              0.0341980069             0.00166599854           
       3.127532              0.0246805225             0.00138458458           
       3.130172              0.0130495779             0.00102419062           
       3.132813             0.00947408247            0.000859115688           
       3.135453             0.00755782018            0.000761007897           
       3.138093             0.00744372927              0.0008183315           
       3.140734             0.00658825504             0.00071026727           
       3.143374             0.00716834113            0.000783509502           
       3.146014              0.0076374616            0.000870646555           
       3.148655             0.00790064841            0.000823173518           
       3.151295             0.00632311151            0.000784770384           
       3.153936             0.00744333879            0.000822478675           
       3.156576             0.00626673002            0.000744412079           
       3.159216             0.00677948833            0.000778140853           
       3.161857             0.00504054957             0.00066823253           
       3.164497             0.00750946579            0.000856992109           
       3.167138             0.00688394428            0.000847800936           
       3.169778             0.00776351385            0.000885487792           
       3.172418             0.00652448162            0.000803500812           
       3.175059             0.00576238196            0.000669443322           
       3.177699             0.00555983764            0.000696329826           
       3.180339              0.0066010597            0.000812926945           
       3.182980             0.00566153521            0.000778376387           
       3.185620             0.00643655767             0.00084522846           
       3.188261             0.00621735699            0.000845535777           
       3.190901             0.00523579509            0.000713626891           
       3.193541             0.00641495802            0.000830003349           
       3.196182             0.00677969459            0.000889232862           
       3.198822             0.00687555393            0.000895797458           
       3.201463             0.00573923742            0.000804332444           
       3.204103             0.00455777115            0.000712417172           
       3.206743             0.00544775398            0.000778800281           
       3.209384             0.00597606742            0.000881283322           
       3.212024             0.00656616604            0.000861243135           
       3.214664             0.00585770807              0.0009250146           
       3.217305              0.0065871198            0.000932429885           
       3.219945             0.00487494379            0.000825614873           
       3.222586             0.00505574448            0.000800834305           
       3.225226             0.00468391721            0.000855108151           
       3.227866             0.00702688278             0.00095728051           
       3.230507             0.00600200878            0.000917109596           
       3.233147             0.00612825138            0.000934187374           
       3.235787             0.00757607203             0.00106297385           
       3.238428             0.00397520314            0.000830907294           
       3.241068             0.00711908865             0.00103972814           
       3.243709             0.00681478754             0.00105099555           
       3.246349             0.00469929742            0.000795595423           
       3.248989             0.00468473611            0.000937964446           
       3.251630             0.00591724397             0.00101512035           
       3.254270             0.00515463472            0.000846764254           
       3.256911             0.00627297194             0.00101922288           
       3.259551             0.00787366955             0.00122933741           
       3.262191             0.00339389627            0.000824420769           
       3.264832             0.00500740442             0.00104630909           
       3.267472             0.00634560387             0.00110495034           
       3.270112             0.00326164749            0.000875461705           
       3.272753             0.00667195272             0.00114609313           
       3.275393             0.00554904809             0.00106647615           
       3.278034             0.00615095936             0.00112346041           
       3.280674              0.0060532356             0.00120938741           
       3.283314             0.00599303852             0.00107622928           
       3.285955             0.00554830579             0.00106843658           
       3.288595             0.00717175885              0.0013514377           
       3.291235             0.00619789075             0.00129150072           
       3.293876             0.00580840097             0.00126822803           
       3.296516              0.0045894895             0.00108226253           
       3.299157              0.0054622041             0.00116585046           
       3.301797             0.00872912056             0.00168116287           
       3.304437             0.00437658376             0.00103133807           
       3.307078             0.00646423721             0.00138070486           
       3.309718             0.00439504053             0.00117511117           
       3.312359              0.0028252092            0.000942379808           
       3.314999             0.00701292394             0.00146184745           
       3.317639             0.00473826787             0.00114918903           
       3.320280             0.00471619877             0.00121897637           
       3.322920             0.00551581823             0.00134045727           
       3.325560             0.00575673549             0.00137034869           
       3.328201             0.00581298911              0.0012401795           
       3.330841             0.00354059058             0.00117797354           
       3.333482             0.00487837518             0.00130699095           
       3.336122             0.00560427057             0.00140150328           
       3.338762              0.0093338682             0.00208932316           
       3.341403             0.00254872104              0.0010432414           
       3.344043             0.00700746323             0.00166078196           
       3.346683             0.00572783563             0.00153291666           
       3.349324             0.00363882828             0.00137371763           
       3.351964             0.00171394578            0.000996965865           
       3.354605             0.00610745191             0.00215231577           
       3.357245             0.00368758771             0.00150870697           
       3.359885             0.00554371059             0.00148053803           
       3.362526             0.00491816056             0.00174388915           
       3.365166             0.00328781709             0.00134484484           
       3.367807             0.00539988595             0.00220572646           
       3.370447             0.00806245705             0.00223571629           
       3.373087             0.00283792539             0.00141843921           
       3.375728             0.00355386904             0.00179143139           
       3.378368              0.0101019233             0.00448251137           
       3.381008             0.00442662951             0.00221224943           
       3.383649             0.00350792127             0.00157981736           
       3.386289             0.00396007045             0.00198661614           
       3.388930              0.0100209518             0.00499873723           
       3.391570             0.00357559252              0.0021122354           
       3.394210             0.00596745047             0.00345328711           
       3.396851             0.00735774924             0.00428928164           
       3.399491              0.0024819972             0.00249192408           
       3.402131           -2.67545542e-05                         0           
       3.404772           -2.67674673e-05                         0           
       3.407412                       nan                       nan           
       3.410053           -2.68333957e-05                         0           
       3.412693                       nan                       nan           
       3.415333           -2.68846738e-05                         0           
