################################################################################
# EDF_DataBlockID                     0.Image.Psd
# EDF_BinarySize                      4366944
# EDF_HeaderSize                      2560
# ByteOrder                           LowByteFirst
# DataType                            FloatValue
# Dim_1                               1028
# Dim_2                               1062
# Image                               0
# HeaderID                            EH:000000:000000:000000
# Size                                4366944
# Center_1                            607.5200
# Center_2                            651.5500
# Comment                             Xenocs_Cell_Window - 20251028_20perc_iodine_1.23mg
# DDummy                              0.6
# Date                                2025-10-29T08:51:52
# Delta                               0
# Dummy                               -1.5
# ExposureTime                        360
# Gamma                               0
# Intensity1                          8.51161e-10
# PSize_1                             7.5e-05
# PSize_2                             7.5e-05
# Pressure                            0.0332222
# SampleDistance                      0.450002
# SampleEnvKind                       large
# SampleEnvPN                         ElectroChemical cell
# SampleEnvSN                         1141
# Thickness                           0
# Wavelength                          1.541891e-10
# Wavelength                          1.54189e-10
# aux                                 0
# aux_dial                            0.002375
# beamx                               588.434
# beamx_dial                          588.434
# beamz                               657.808
# beamz_dial                          657.808
# det0x                               0
# det0x_dial                          6.36945
# det0xvd                             0
# det0xvd_dial                        0
# det0y                               450.002
# det0y_dial                          481.635
# det0z                               0
# det0z_dial                          1.23302
# det0zvd                             0
# det0zvd_dial                        0
# mag                                 1.818
# mag_dial                            1.818
# om                                  0.2499
# om_dial                             -0.610199
# phi                                 -0.0120535
# phi_dial                            0
# ry                                  0.599993
# ry_dial                             0.599993
# s1bot                               0.8
# s1bot_dial                          -1.66094
# s1hl                                0.8
# s1hl_dial                           -0.608437
# s1hr                                0.8
# s1hr_dial                           0.970938
# s1top                               0.8
# s1top_dial                          -0.461562
# s2bot                               0.45
# s2bot_dial                          1.36109
# s2hl                                0.45
# s2hl_dial                           -0.83375
# s2hr                                0.45
# s2hr_dial                           -0.118594
# s2top                               0.45
# s2top_dial                          1.44734
# w2theta                             32
# w2theta_dial                        32
# waxsch                              19.2605
# waxsch_dial                         -32.7355
# waxsh                               137.085
# waxsh_dial                          -43.5338
# waxsth                              26.0607
# waxsth_dial                         -19.4086
# waxsz                               67.0407
# waxsz_dial                          -23.7954
# wind                                65.9854
# wind_dial                           66.0041
# wpsi                                124
# wpsi_dial                           124
# wstod                               115
# wstod_dial                          115
# x                                   0
# x_dial                              1.00969
# z                                   0
# z_dial                              13.3172
# CountCutoff                         15302352
# DetectorModel                       Dectris EIGER2 Si 1M, S/N E-02-0362
# ThresholdSetting                    4023.88989258
# Saturation                          0
# FlatField                           Corrected
# BackgroundReductionExtra            0.02
# BackgroundCorrectionConstant        0.0026712
# Detector                            0
# Monitor                             0
# Pil_Roi0                            0
# SumForIntensity1                    3.06418e+08
# TransmittedFlux                     851161
# det                                 0
# mon                                 0
# pilai0                              3.06418e+08
# pilai1                              767733
# pilct0                              5.30938e+08
# pilct1                              767733
# pilroi0                             0
# pilroi1                             0
# sec                                 1
# title                               20251028_20perc_iodine_1.23mg_0_00168.edf
# usaxs0                              0
# Operation                           Azimuthal average I(q)
# Error_model                         ErrorModel.poisson
# Geometrical_correction              True
# Transmission_correction             True
# Thickness_correction                False
# Binning mode                        Uniform
# Binning factor                      1.0
# Psi                                 0.0
# Omega                               0.2499
# MaskInvalidPixels                   True
# DetectorEdge                        3
# MaskFiles                           ['20251028_20perc_iodine_1.23mg_0_00012_mask.edf']
################################################################################
    q(A⁻¹)                Intensity(a.u.)            Sigma_I(a.u.)            
       0.000340                371903.314                120.684216           
       0.001019                359952.636                72.7065903           
       0.001698                350809.188                50.7541566           
       0.002377                330842.564                 44.085104           
       0.003056                306894.084                35.8848795           
       0.003735                253502.984                 28.763162           
       0.004415                205498.642                25.8970127           
       0.005094                153583.623                19.3886871           
       0.005773                101261.979                14.5755821           
       0.006452                58927.3159                10.6534506           
       0.007131                32345.4989                7.64622918           
       0.007810                16238.9646                5.37655946           
       0.008490                8138.91639                3.37396926           
       0.009169                3918.39183                2.31367534           
       0.009848                1210.81387                 1.2434913           
       0.010527                 470.31812               0.774997273           
       0.011206                119.291168               0.372513464           
       0.011885                55.1379541               0.235305035           
       0.012564                25.4577314               0.164152505           
       0.013244                17.0113811               0.125449064           
       0.013923                12.4980952               0.109262017           
       0.014602                  9.442294               0.088078718           
       0.015281                7.55328366              0.0801916218           
       0.015960                6.05636303              0.0712923578           
       0.016639                5.00792293              0.0612181875           
       0.017319                4.22963629              0.0553854817           
       0.017998                3.52981576              0.0484051765           
       0.018677                3.04453568              0.0465609114           
       0.019356                2.58378214              0.0423826384           
       0.020035                2.11294414              0.0359581474           
       0.020714                1.81862204              0.0337129504           
       0.021394                1.65684928               0.030446466           
       0.022073                 1.4961248              0.0301015362           
       0.022752                1.19597659              0.0257453982           
       0.023431                1.11909456              0.0241740247           
       0.024110                  1.016152               0.024016052           
       0.024789               0.926625524               0.021298774           
       0.025469               0.838157765              0.0208745649           
       0.026148               0.756452668              0.0186328961           
       0.026827               0.707870658               0.018313076           
       0.027506               0.656807717              0.0178945793           
       0.028185               0.574701783              0.0159628324           
       0.028864               0.518240368              0.0150733787           
       0.029544               0.461331107              0.0137910434           
       0.030223               0.444544127              0.0137319288           
       0.030902               0.413522194              0.0133653318           
       0.031581               0.394103543               0.012403308           
       0.032260               0.363198241              0.0121099356           
       0.032939               0.333692929              0.0111922825           
       0.033619               0.313477104              0.0110073896           
       0.034298               0.281212496              0.0101457443           
       0.034977               0.258711313             0.00954013531           
       0.035656               0.241479642             0.00946088209           
       0.036335               0.215963244             0.00867754572           
       0.037014               0.218729661             0.00875899634           
       0.037693               0.200287538             0.00806299879           
       0.038373               0.200779428             0.00815211636           
       0.039052               0.187307682             0.00790737667           
       0.039731               0.181674428             0.00760607697           
       0.040410               0.165444161             0.00720971325           
       0.041089               0.161248379             0.00700621066           
       0.041768               0.147933304             0.00674577052           
       0.042448               0.145503946             0.00663823934           
       0.043127               0.135735885             0.00626011996           
       0.043806               0.124273386             0.00603462889           
       0.044485               0.126263539             0.00595779703           
       0.045164               0.115130976               0.005801217           
       0.045843               0.115640438             0.00557636776           
       0.046523               0.107998334             0.00540757021           
       0.047202               0.108480863             0.00545750864           
       0.047881               0.104520992             0.00525366966           
       0.048560              0.0941053379             0.00503047143           
       0.049239              0.0921826459             0.00478056257           
       0.049918              0.0876975922              0.0047539689           
       0.050598              0.0922557489             0.00480279506           
       0.051277              0.0802709306             0.00446576839           
       0.051956              0.0818758649             0.00448186926           
       0.052635               0.084744824             0.00446294965           
       0.053314              0.0861784998             0.00463212488           
       0.053993               0.078188495             0.00429115652           
       0.054673              0.0749014089             0.00410642987           
       0.055352              0.0785378316             0.00426669525           
       0.056031              0.0763463347             0.00411835613           
       0.056710              0.0726513677             0.00411590892           
       0.057389              0.0702426654             0.00390266693           
       0.058068              0.0736103729             0.00403630934           
       0.058748              0.0671655143             0.00390366048           
       0.059427              0.0644501155              0.0037591942           
       0.060106              0.0694094354             0.00393806861           
       0.060785              0.0720496354              0.0038920509           
       0.061464              0.0576602979              0.0035657016           
       0.062143              0.0672831675             0.00381263784           
       0.062822              0.0600033684             0.00355822715           
       0.063502              0.0582528485             0.00349967589           
       0.064181              0.0561977932             0.00340109244           
       0.064860              0.0557668098             0.00343962889           
       0.065539              0.0582555302             0.00348116521           
       0.066218              0.0550327617             0.00331105721           
       0.066897              0.0482020163             0.00312268635           
       0.067577              0.0529694072             0.00330491856           
       0.068256              0.0439706465             0.00308509792           
       0.068935              0.0530199121             0.00333293878           
       0.069614              0.0530257628             0.00336630326           
       0.070293              0.0435862416             0.00308014249           
       0.070972              0.0495365102             0.00325962216           
       0.071652                0.04695172             0.00317926093           
       0.072331               0.045310766             0.00306754658           
       0.073010              0.0406054087             0.00297025637           
       0.073689              0.0505215395             0.00329493757           
       0.074368              0.0510235189             0.00330524415           
       0.075047              0.0424047174             0.00298079543           
       0.075727              0.0408189069             0.00290646477           
       0.076406              0.0448230035             0.00310645256           
       0.077085              0.0373696082             0.00278343027           
       0.077764              0.0434914399              0.0029922544           
       0.078443              0.0394403946               0.002867133           
       0.079122              0.0417445343             0.00292135771           
       0.079802              0.0388594225             0.00284849146           
       0.080481              0.0362790695             0.00265945416           
       0.081160              0.0320986306             0.00255287315           
       0.081839              0.0418306633              0.0028676373           
       0.082518              0.0382285527             0.00274369846           
       0.083197              0.0381734112             0.00269911851           
       0.083876              0.0358490187             0.00257218974           
       0.084556              0.0366978152             0.00267483983           
       0.085235              0.0332297667             0.00249613725           
       0.085914              0.0333127845             0.00252353169           
       0.086593              0.0354757006             0.00258740614           
       0.087272              0.0337370902             0.00248754106           
       0.087951              0.0328490402              0.0025100299           
       0.088631              0.0358231155             0.00253191516           
       0.089310              0.0295166108             0.00234701313           
       0.089989              0.0333560705             0.00246582659           
       0.090668              0.0279790104              0.0022832782           
       0.091347              0.0333828305             0.00250800847           
       0.092026              0.0333858192             0.00239735776           
       0.092706              0.0348129458             0.00253691849           
       0.093385              0.0344345934             0.00248434961           
       0.094064              0.0301163426             0.00235039971           
       0.094743              0.0363155155             0.00254166031           
       0.095422              0.0276182992             0.00219179436           
       0.096101              0.0268269741             0.00220465555           
       0.096781              0.0281878967             0.00222752662           
       0.097460              0.0275387527             0.00214166806           
       0.098139              0.0303998473             0.00223285804           
       0.098818              0.0345531401             0.00235118984           
       0.099497              0.0285306714             0.00214087194           
       0.100176              0.0325000726             0.00222498154           
       0.100856              0.0301770339             0.00214261499           
       0.101535              0.0252272518             0.00195525059           
       0.102214              0.0299476038              0.0021303511           
       0.102893              0.0268878701             0.00199559165           
       0.103572              0.0259715042             0.00193231706           
       0.104251              0.0279597203             0.00201232293           
       0.104931              0.0260630482             0.00192518258           
       0.105610              0.0244255258             0.00187167268           
       0.106289              0.0260429946             0.00190048841           
       0.106968              0.0289131601             0.00200841995           
       0.107647              0.0251657518             0.00187487483           
       0.108326              0.0251820989              0.0018503937           
       0.109005              0.0257019736             0.00185763473           
       0.109685               0.026137704             0.00185230204           
       0.110364              0.0282357809             0.00194707589           
       0.111043              0.0257686923             0.00185269442           
       0.111722              0.0255900133             0.00182369362           
       0.112401               0.027320176             0.00188957613           
       0.113080              0.0210744489             0.00164057176           
       0.113760              0.0227493183             0.00173298694           
       0.114439              0.0261690428             0.00183215505           
       0.115118              0.0245260004             0.00176033196           
       0.115797              0.0240989973             0.00176110609           
       0.116476              0.0258307199              0.0017959946           
       0.117155              0.0240183701             0.00174581106           
       0.117835              0.0231685286             0.00168056015           
       0.118514              0.0222986656             0.00166961478           
       0.119193              0.0250182309             0.00176851307           
       0.119872              0.0241313232             0.00171516086           
       0.120551              0.0262470509             0.00177685502           
       0.121230              0.0265409559             0.00176879473           
       0.121910              0.0245156835             0.00171639936           
       0.122589              0.0250504824             0.00173680747           
       0.123268                 0.0197724             0.00151313271           
       0.123947              0.0230852227             0.00164556127           
       0.124626              0.0220845244             0.00158982115           
       0.125305              0.0214855471             0.00157580856           
       0.125985              0.0226247702             0.00160449842           
       0.126664              0.0268040659             0.00172978009           
       0.127343              0.0204297248             0.00152766067           
       0.128022              0.0216921027             0.00156207754           
       0.128701              0.0213431346             0.00154139031           
       0.129380              0.0214668334             0.00152648954           
       0.130059              0.0223425686             0.00156093135           
       0.130739              0.0221952112             0.00156671602           
       0.131418              0.0215415211             0.00153915093           
       0.132097              0.0243722442             0.00161616247           
       0.132776              0.0235346418             0.00158097831           
       0.133455              0.0239028036             0.00160567483           
       0.134134               0.018861145             0.00142177856           
       0.134814              0.0203282993              0.0014608324           
       0.135493              0.0229337138             0.00155790541           
       0.136172              0.0200798495             0.00144674888           
       0.136851              0.0215889496             0.00150885386           
       0.137530              0.0197472528             0.00140877651           
       0.138209              0.0213705377             0.00148274213           
       0.138889              0.0209388464             0.00147415941           
       0.139568              0.0213247779             0.00148703981           
       0.140247              0.0189950767             0.00140162343           
       0.140926              0.0206292779             0.00141890758           
       0.141605              0.0229517598             0.00153467293           
       0.142284              0.0207963686             0.00143662937           
       0.142964               0.021751301             0.00147486246           
       0.143643              0.0210247633             0.00144818981           
       0.144322              0.0228768464             0.00147901928           
       0.145001              0.0190715599             0.00137813894           
       0.145680              0.0193189043             0.00135423149           
       0.146359              0.0233191605             0.00149328896           
       0.147039              0.0189216076             0.00135621102           
       0.147718               0.020062579             0.00137345822           
       0.148397              0.0168511479             0.00127830231           
       0.149076              0.0206886926             0.00137245911           
       0.149755              0.0201156413             0.00137421398           
       0.150434               0.020245372             0.00137920086           
       0.151114              0.0222591101             0.00143816841           
       0.151793              0.0193482941             0.00134085313           
       0.152472              0.0201992501             0.00134582162           
       0.153151              0.0194396951             0.00133303986           
       0.153830              0.0185984378             0.00129437726           
       0.154509              0.0196618825             0.00132531584           
       0.155188              0.0204652114             0.00135161937           
       0.155868              0.0196501964             0.00131500744           
       0.156547              0.0197224046             0.00132588384           
       0.157226              0.0201270027             0.00130670024           
       0.157905              0.0191676219             0.00128588814           
       0.158584              0.0191756802             0.00128382181           
       0.159263              0.0209803825             0.00134781752           
       0.159943              0.0192556084             0.00129219127           
       0.160622              0.0209359163             0.00132138987           
       0.161301              0.0192045521             0.00128250001           
       0.161980              0.0178007249             0.00121374474           
       0.162659              0.0196174708             0.00128830053           
       0.163338              0.0178962512             0.00122045691           
       0.164018              0.0187720895             0.00124340411           
       0.164697              0.0212403771             0.00133960911           
       0.165376              0.0193940385             0.00125209452           
       0.166055              0.0191567563              0.0012526183           
       0.166734              0.0188425373             0.00123673784           
       0.167413              0.0185111137             0.00122667127           
       0.168093              0.0167203364              0.0011768558           
       0.168772              0.0181102161             0.00118897367           
       0.169451              0.0170755732             0.00117575204           
       0.170130              0.0179554306               0.001189835           
       0.170809              0.0181408759             0.00121023619           
       0.171488              0.0177373116             0.00118578972           
       0.172168              0.0157647518             0.00110717183           
       0.172847              0.0206517654             0.00128386034           
       0.173526               0.018178601             0.00118155662           
       0.174205              0.0181868509             0.00118726762           
       0.174884              0.0160902075             0.00111091688           
       0.175563              0.0202555823             0.00125176682           
       0.176243              0.0178989967             0.00118847513           
       0.176922              0.0176986121               0.001151006           
       0.177601              0.0172741299              0.0011496161           
       0.178280              0.0161137623             0.00109793865           
       0.178959              0.0176949595             0.00115980127           
       0.179638              0.0177432508             0.00115803838           
       0.180317              0.0185234172             0.00117460409           
       0.180997               0.016015403             0.00109812247           
       0.181676              0.0173685026             0.00113135995           
       0.182355              0.0167581828             0.00111797891           
       0.183034              0.0186651015             0.00116093714           
       0.183713               0.015275321             0.00106303066           
       0.184392              0.0172604508              0.0011296536           
       0.185072              0.0180917847             0.00114335744           
       0.185751              0.0184283895             0.00115715495           
       0.186430              0.0178610041             0.00113122303           
       0.187109              0.0178929182             0.00114484263           
       0.187788              0.0176112356             0.00113299527           
       0.188467              0.0183394733             0.00114250068           
       0.189147              0.0151394491             0.00104856177           
       0.189826              0.0163412202              0.0010701202           
       0.190505              0.0160294426              0.0010773093           
       0.191184              0.0168349989             0.00108813561           
       0.191863              0.0179688906             0.00112655155           
       0.192542              0.0169423416             0.00110421455           
       0.193222               0.016042004             0.00105039521           
       0.193901               0.019730702             0.00118053026           
       0.194580              0.0162937714             0.00105402896           
       0.195259              0.0170907548             0.00109189713           
       0.195938              0.0165649252             0.00107753498           
       0.196617              0.0182130547             0.00111409744           
       0.197297              0.0156230834             0.00103605981           
       0.197976              0.0180050868             0.00109515694           
       0.198655              0.0157412124             0.00103517992           
       0.199334              0.0160631506             0.00103649023           
       0.200013              0.0161159249             0.00103761585           
       0.200692              0.0159665406             0.00103900788           
       0.201371              0.0173392994             0.00107055836           
       0.202051              0.0164339881             0.00104547707           
       0.202730              0.0175294374             0.00106897495           
       0.203409              0.0174985493             0.00107520224           
       0.204088              0.0149592156            0.000993031255           
       0.204767              0.0159224928             0.00101912023           
       0.205446              0.0150861932             0.00099393401           
       0.206126               0.015871793             0.00100563384           
       0.206805              0.0166596295             0.00104917793           
       0.207484              0.0164958082             0.00102523799           
       0.208163              0.0143077034             0.00096056058           
       0.208842              0.0163555317             0.00102422099           
       0.209521              0.0160924995             0.00100750855           
       0.210201              0.0174924842             0.00106214126           
       0.210880              0.0159158858            0.000993264788           
       0.211559               0.017099589             0.00104475999           
       0.212238              0.0165405209              0.0010223103           
       0.212917              0.0152270804            0.000977236931           
       0.213596              0.0140822615            0.000945340183           
       0.214276              0.0167664444             0.00101001759           
       0.214955              0.0147026603             0.00096570531           
       0.215634              0.0145588056            0.000954082131           
       0.216313              0.0171028137              0.0010319146           
       0.216992              0.0160538659             0.00099951891           
       0.217671              0.0164958718             0.00100632233           
       0.218351               0.015261599             0.00097740897           
       0.219030              0.0137970223            0.000914658729           
       0.219709              0.0158328993            0.000985932618           
       0.220388              0.0157666175            0.000982602784           
       0.221067              0.0148969874            0.000955877251           
       0.221746              0.0153143011            0.000968180656           
       0.222426              0.0154139995            0.000956810668           
       0.223105              0.0153834578            0.000968884455           
       0.223784              0.0157670285             0.00097115954           
       0.224463              0.0165648286             0.00100335357           
       0.225142              0.0137011749            0.000898075537           
       0.225821              0.0147416762             0.00093530496           
       0.226500              0.0152330799            0.000956811355           
       0.227180              0.0145902475            0.000921978635           
       0.227859              0.0165304864            0.000985771595           
       0.228538              0.0155648029            0.000946939637           
       0.229217              0.0176609823             0.00101667475           
       0.229896              0.0150009698             0.00093653745           
       0.230575              0.0153631073            0.000932666314           
       0.231255              0.0158894891            0.000962710436           
       0.231934              0.0162445258              0.0009667562           
       0.232613              0.0146374588            0.000921076351           
       0.233292              0.0153490698            0.000934087005           
       0.233971              0.0153464359            0.000933570979           
       0.234650               0.014496247            0.000918015271           
       0.235330              0.0141725938            0.000899782887           
       0.236009              0.0153740123            0.000935124704           
       0.236688              0.0156105856            0.000938919832           
       0.237367               0.015312888            0.000931274661           
       0.238046              0.0168439154            0.000983600071           
       0.238725              0.0154424346            0.000927262016           
       0.239405               0.016059223            0.000951462294           
       0.240084              0.0147039307            0.000904631656           
       0.240763              0.0140069512            0.000891385531           
       0.241442              0.0159924084            0.000939047967           
       0.242121              0.0157805955            0.000934569355           
       0.242800              0.0141339105            0.000888652973           
       0.243480              0.0162266428            0.000947713575           
       0.244159              0.0145750612             0.00089862407           
       0.244838              0.0142078031             0.00087263114           
       0.245517              0.0152164605            0.000916065875           
       0.246196              0.0152844529            0.000918552941           
       0.246875              0.0150783599            0.000899621294           
       0.247554              0.0138997166            0.000872523636           
       0.248234              0.0142314372            0.000869486634           
       0.248913              0.0152195659            0.000909251598           
       0.249592              0.0152261552             0.00090080647           
       0.250271              0.0158903559            0.000917572276           
       0.250950              0.0146377293            0.000886058096           
       0.251629              0.0142226342            0.000865980967           
       0.252309              0.0135517881            0.000847026823           
       0.252988              0.0139440201            0.000844397167           
       0.253667               0.014749618            0.000878593468           
       0.254346              0.0147929732            0.000879702727           
       0.255025              0.0128971367            0.000819600979           
       0.255704              0.0149528024            0.000878462929           
       0.256384              0.0114596327            0.000766376941           
       0.257063               0.013968471            0.000850943239           
       0.257742              0.0137841357            0.000839452843           
       0.258421              0.0140492088            0.000845854582           
       0.259100              0.0124901433            0.000798932641           
       0.259779              0.0138538353            0.000840704087           
       0.260459              0.0123283541            0.000794625912           
       0.261138              0.0137137192            0.000821706347           
       0.261817              0.0133350656            0.000826638991           
       0.262496              0.0135404212            0.000824810522           
       0.263175                0.01440731            0.000852631481           
       0.263854              0.0135281518            0.000822369033           
       0.264534              0.0124024907            0.000780686777           
       0.265213              0.0139165381            0.000839998639           
       0.265892              0.0132596599            0.000809429707           
       0.266571              0.0134924953            0.000814648642           
       0.267250              0.0121526078            0.000774443836           
       0.267929              0.0133814583             0.00081182302           
       0.268609              0.0107777195            0.000732562161           
       0.269288              0.0138317645            0.000816102381           
       0.269967              0.0140369711            0.000830991794           
       0.270646               0.012401719            0.000777713322           
       0.271325              0.0121111789             0.00076983304           
       0.272004              0.0125227328            0.000775000475           
       0.272683              0.0121924111            0.000765655659           
       0.273363              0.0122273991            0.000771643719           
       0.274042              0.0126602704            0.000780551146           
       0.274721              0.0100591365            0.000695348733           
       0.275400              0.0121803651            0.000760094222           
       0.276079              0.0135130461            0.000805142875           
       0.276758              0.0123569059            0.000779646127           
       0.277438              0.0127086442            0.000781789199           
       0.278117              0.0117116859            0.000764145196           
       0.278796              0.0112450609            0.000741167432           
       0.279475              0.0125895158            0.000797178602           
       0.280154              0.0133422494            0.000808859829           
       0.280833              0.0108822779            0.000734939721           
       0.281513               0.011204378            0.000757436614           
       0.282192              0.0117083463            0.000761074303           
       0.282871              0.0124811674             0.00079128164           
       0.283550              0.0112119756            0.000753990214           
       0.284229              0.0102026466              0.0007298159           
       0.284908              0.0115012361            0.000783043668           
       0.285588              0.0111812506            0.000763032928           
       0.286267             0.00982314003            0.000726644495           
       0.286946              0.0115341756            0.000782269921           
       0.287625              0.0111356782            0.000781725083           
       0.288304             0.00976038208            0.000722066209           
       0.288983             0.00979506545            0.000732508216           
       0.289663              0.0100913795            0.000747856975           
       0.290342              0.0115117837            0.000794504937           
       0.291021              0.0102378991            0.000753293443           
       0.291700             0.00998217049            0.000734108803           
       0.292379              0.0104551194            0.000768500122           
       0.293058              0.0104959287            0.000767089968           
       0.293738              0.0106342928            0.000765645655           
       0.294417              0.0104491807            0.000767774033           
       0.295096             0.00987568814            0.000738201993           
       0.295775             0.00923952973            0.000724934638           
       0.296454              0.0102472261            0.000753569103           
       0.297133              0.0102538612            0.000757379318           
       0.297812              0.0118678349             0.00081889502           
       0.298492             0.00952651343            0.000735102268           
       0.299171             0.00962999731            0.000737685815           
       0.299850              0.0113185453            0.000794287747           
       0.300529             0.00947197025            0.000734797162           
       0.301208              0.0109548234            0.000792146511           
       0.301887             0.00933981555            0.000730559487           
       0.302567              0.0103574735            0.000765478127           
       0.303246              0.0109683204            0.000792870288           
       0.303925             0.00860557097            0.000711316146           
       0.304604             0.00916563477             0.00071824681           
       0.305283             0.00832771198            0.000694782839           
       0.305962             0.00957721268            0.000740583795           
       0.306642              0.0108548689            0.000799145002           
       0.307321             0.00796050953            0.000682173308           
       0.308000             0.00834955883            0.000690362991           
       0.308679              0.0100402461            0.000773432537           
       0.309358             0.00906459304            0.000724952531           
       0.310037             0.00964027791              0.0007492845           
       0.310717             0.00832733408            0.000695723902           
       0.311396             0.00843578663            0.000704935949           
       0.312075              0.0101934986            0.000784731759           
       0.312754             0.00975090788            0.000752152221           
       0.313433             0.00829444614            0.000699741565           
       0.314112             0.00934329331            0.000742496254           
       0.314792             0.00971406026            0.000762431377           
       0.315471              0.0087734292            0.000715617278           
       0.316150             0.00936407423            0.000746155629           
       0.316829              0.0096601595            0.000762864856           
       0.317508              0.0100331153            0.000768727651           
       0.318187             0.00806517243            0.000698317657           
       0.318866             0.00873653013            0.000717010479           
       0.319546             0.00828995323            0.000708914232           
       0.320225             0.00870022491            0.000726258762           
       0.320904             0.00960389816             0.00075124634           
       0.321583             0.00765830279            0.000685631088           
       0.322262             0.00764485498            0.000674646586           
       0.322941             0.00845802021            0.000718711756           
       0.323621             0.00781843543             0.00068678658           
       0.324300             0.00753175787            0.000674606164           
       0.324979             0.00846303117            0.000716390049           
       0.325658             0.00812503965            0.000703212347           
       0.326337              0.0082208232            0.000708268452           
       0.327016             0.00810180756            0.000698658971           
       0.327696             0.00836203168            0.000717684623           
       0.328375             0.00760217599            0.000678525867           
       0.329054              0.0074595635            0.000675776804           
       0.329733             0.00708384451            0.000660943327           
       0.330412             0.00828753016            0.000709037493           
       0.331091             0.00723143263             0.00067433559           
       0.331771             0.00681860168             0.00063764635           
       0.332450             0.00741646223            0.000677925111           
       0.333129              0.0076930274            0.000688667947           
       0.333808             0.00734297033            0.000673706514           
       0.334487             0.00758632078            0.000688025799           
       0.335166             0.00803552463            0.000697739395           
       0.335846              0.0075867264            0.000689888644           
       0.336525             0.00785530454            0.000695063012           
       0.337204             0.00673211641            0.000645142341           
       0.337883             0.00642725247            0.000631201049           
       0.338562             0.00569374354            0.000597389195           
       0.339241             0.00753703118            0.000688607274           
       0.339921             0.00728145195            0.000665480919           
       0.340600             0.00743916256            0.000685423139           
       0.341279             0.00709951832            0.000662423206           
       0.341958             0.00642180282            0.000638901498           
       0.342637             0.00584752747            0.000601052572           
       0.343316             0.00724873142             0.00067113965           
       0.343995             0.00640882214            0.000641393591           
       0.344675             0.00671502968            0.000644471741           
       0.345354             0.00695267115             0.00066010201           
       0.346033             0.00720385091            0.000670168454           
       0.346712             0.00693744873            0.000661856538           
       0.347391             0.00568341993              0.0006027672           
       0.348070             0.00575499236            0.000597936798           
       0.348750             0.00587317373            0.000612773191           
       0.349429             0.00682815799            0.000652186715           
       0.350108             0.00546834889            0.000590667595           
       0.350787             0.00616312555             0.00061641612           
       0.351466             0.00638445014              0.0006389438           
       0.352145             0.00544696015            0.000590660936           
       0.352825             0.00620142402            0.000627386608           
       0.353504             0.00506878959            0.000567068003           
       0.354183             0.00557414986            0.000587813738           
       0.354862             0.00474782342            0.000555103631           
       0.355541             0.00669124563            0.000650361728           
       0.356220             0.00608608278            0.000621426804           
       0.356900              0.0063897596            0.000642789774           
       0.357579             0.00541833495            0.000584657372           
       0.358258              0.0057001846            0.000607969442           
       0.358937             0.00633841224            0.000629049623           
       0.359616             0.00544668077            0.000591266522           
       0.360295              0.0053199004            0.000584831459           
       0.360975             0.00490140215            0.000558956212           
       0.361654              0.0064349654            0.000643759987           
       0.362333             0.00554016894            0.000594290046           
       0.363012             0.00536375838            0.000592275383           
       0.363691             0.00514939297            0.000568870236           
       0.364370             0.00503236736            0.000569345481           
       0.365050             0.00586770133            0.000611495895           
       0.365729             0.00627489815            0.000638387355           
       0.366408             0.00437080644            0.000533976659           
       0.367087             0.00548487346            0.000588576309           
       0.367766             0.00514274187            0.000581798715           
       0.368445             0.00653512052            0.000644202211           
       0.369124             0.00490303508            0.000562375341           
       0.369804              0.0057881981            0.000610056403           
       0.370483             0.00467431912            0.000550621979           
       0.371162             0.00591181572            0.000622824149           
       0.371841             0.00404131166            0.000505972861           
       0.372520             0.00376961027            0.000498463597           
       0.373199             0.00500971909            0.000567769409           
       0.373879             0.00481380185            0.000563000421           
       0.374558             0.00492216768             0.00056099469           
       0.375237             0.00474284091             0.00055158338           
       0.375916             0.00467172142            0.000557919585           
       0.376595             0.00504383818            0.000568383658           
       0.377274             0.00404448482            0.000517117575           
       0.377954             0.00467615938            0.000547300509           
       0.378633             0.00433639978            0.000533703142           
       0.379312             0.00498350706            0.000571995997           
       0.379991              0.0042245523            0.000523916571           
       0.380670             0.00458048562            0.000555183493           
       0.381349              0.0040591192            0.000515128691           
       0.382029             0.00397890259             0.00051732089           
       0.382708             0.00502402464            0.000568611073           
       0.383387             0.00358737263            0.000491371449           
       0.384066             0.00390947964             0.00050825063           
       0.384745              0.0055336711            0.000607056366           
       0.385424              0.0048365127            0.000569457163           
       0.386104             0.00512936082            0.000579963166           
       0.386783             0.00371083151            0.000503962233           
       0.387462             0.00449276347            0.000540727673           
       0.388141             0.00344315378             0.00048092974           
       0.388820             0.00503947998            0.000577624366           
       0.389499             0.00488748085            0.000572048945           
       0.390178             0.00359629264            0.000492656465           
       0.390858             0.00545777098            0.000601999121           
       0.391537             0.00536976281            0.000603223116           
       0.392216             0.00409876706             0.00052041417           
       0.392895             0.00379519699            0.000502458602           
       0.393574               0.003652748            0.000491716896           
       0.394253             0.00348519361            0.000482467565           
       0.394933             0.00425198245            0.000538995381           
       0.395612             0.00341416529            0.000468953299           
       0.396291             0.00404681765            0.000520951158           
       0.396970             0.00455264387            0.000547655014           
       0.397649              0.0050332809            0.000577611575           
       0.398328             0.00348149009            0.000478277251           
       0.399008             0.00405574073            0.000515095034           
       0.399687             0.00449611767            0.000544448476           
       0.400366             0.00340678221            0.000472112898           
       0.401045             0.00424144618            0.000525785686           
       0.401724             0.00510964219            0.000578057899           
       0.402403             0.00412760568            0.000523596815           
       0.403083             0.00477755151             0.00055519127           
       0.403762             0.00431042123             0.00052995148           
       0.404441             0.00489238837            0.000568190513           
       0.405120             0.00412622041            0.000520095654           
       0.405799             0.00409410513            0.000515817045           
       0.406478             0.00473434216            0.000554698412           
       0.407158             0.00368737833            0.000488618736           
       0.407837             0.00401693468              0.0005144878           
       0.408516             0.00425389065            0.000524839139           
       0.409195             0.00389050967             0.00050761586           
       0.409874              0.0043591861            0.000544797903           
       0.410553             0.00376911454            0.000512033427           
       0.411233             0.00311183737            0.000462840033           
       0.411912             0.00328285932            0.000482124271           
       0.412591             0.00355217043             0.00050482932           
       0.413270             0.00392500062            0.000528140386           
       0.413949              0.0021487325             0.00039503753           
       0.414628             0.00293119021            0.000460562664           
       0.415307             0.00381318105            0.000531146904           
       0.415987             0.00272850248            0.000445594133           
       0.416666             0.00369742554             0.00051559198           
       0.417345             0.00287490885            0.000462233033           
       0.418024             0.00331708066            0.000496521453           
       0.418703             0.00388076417            0.000536068201           
       0.419382             0.00246001126            0.000424713952           
       0.420062             0.00365892676            0.000519421515           
       0.420741             0.00206352726            0.000392149492           
       0.421420             0.00221971805             0.00040826242           
       0.422099             0.00223134174            0.000409340609           
       0.422778             0.00256179449            0.000440980539           
       0.423457             0.00228172397            0.000418725045           
       0.424137             0.00279725411             0.00045606578           
       0.424816             0.00269376763            0.000456903501           
       0.425495             0.00223903865            0.000416163678           
       0.426174             0.00354843543            0.000524087585           
       0.426853             0.00388465994            0.000545024294           
       0.427532             0.00256330148            0.000446473412           
       0.428212             0.00290337448            0.000478304789           
       0.428891             0.00258359138            0.000450169625           
       0.429570             0.00282180189            0.000470786909           
       0.430249             0.00246607365            0.000437827896           
       0.430928             0.00178814583            0.000380974936           
       0.431607             0.00281396718            0.000469707384           
       0.432287             0.00236751191            0.000433993409           
       0.432966             0.00234442562            0.000435670986           
       0.433645             0.00309213981            0.000500867971           
       0.434324             0.00239352615            0.000438012971           
       0.435003             0.00240644485             0.00043994356           
       0.435682             0.00180997969            0.000384674366           
       0.436361             0.00155948445            0.000356586823           
       0.437041             0.00194920985            0.000398129259           
       0.437720             0.00229924758            0.000434487618           
       0.438399             0.00224511785            0.000431583159           
       0.439078             0.00161175973              0.0003762787           
       0.439757              0.0024567204            0.000461693354           
       0.440436             0.00257939446            0.000483741663           
       0.441116             0.00266820248            0.000500043907           
       0.441795             0.00239817701            0.000474637761           
       0.442474             0.00270324147             0.00050532805           
       0.443153             0.00214424688            0.000460557568           
       0.443832             0.00225087762            0.000472665486           
       0.444511             0.00312421207            0.000554353673           
       0.445191             0.00236469321            0.000494016084           
       0.445870             0.00267033732            0.000524987073           
       0.446549             0.00263571243            0.000527072375           
       0.447228             0.00278699667            0.000538925186           
       0.447907             0.00201310751            0.000463525864           
       0.448586             0.00190820221            0.000462145298           
       0.449266             0.00176884909            0.000440857777           
       0.449945             0.00284295668             0.00055662563           
       0.450624             0.00229920757            0.000508521994           
       0.451303              0.0018767502            0.000465390338           
       0.451982             0.00217196286            0.000497562024           
       0.452661             0.00156946305            0.000430837081           
       0.453341             0.00371902439            0.000665535669           
       0.454020             0.00171168275            0.000452199186           
       0.454699             0.00174077402            0.000460190713           
       0.455378             0.00185875206            0.000475784603           
       0.456057             0.00206577351            0.000510501291           
       0.456736             0.00216492277            0.000520979105           
       0.457416             0.00203608254            0.000505253259           
       0.458095             0.00174680786            0.000474759955           
       0.458774              0.0021994114            0.000539767429           
       0.459453             0.00221666339            0.000544613205           
       0.460132             0.00121828578            0.000395030901           
       0.460811             0.00200985571              0.0005263169           
       0.461490             0.00209389231            0.000531743825           
       0.462170             0.00106915351            0.000385896037           
       0.462849             0.00137882434            0.000441075013           
       0.463528             0.00164259081             0.00048030201           
       0.464207             0.00200504341            0.000540583323           
       0.464886             0.00167139951            0.000489717876           
       0.465565            0.000999668579            0.000382894042           
       0.466245            0.000856639138            0.000355545446           
       0.466924             0.00183629647             0.00053285263           
       0.467603            0.000864771356            0.000357911385           
       0.468282             0.00231576965            0.000599585072           
       0.468961            0.000777203438            0.000349634406           
       0.469640             0.00173272425            0.000524131945           
       0.470320             0.00031495312            0.000223613969           
       0.470999              0.0012791232            0.000454892944           
       0.471678             0.00132351851            0.000467167426           
       0.472357             0.00166368747              0.0005252356           
       0.473036             0.00218452376            0.000605660658           
       0.473715             0.00052229968            0.000298466132           
       0.474395             0.00125250284            0.000468583236           
       0.475074             0.00212869883             0.00061089581           
       0.475753             0.00170757548            0.000542420777           
       0.476432              0.0020743944            0.000619615008           
       0.477111            0.000925353346            0.000408833232           
       0.477790            0.000401838344            0.000270852174           
       0.478470             0.00153400842            0.000536199147           
       0.479149              0.0010167831            0.000441057645           
       0.479828             0.00119355059            0.000476736101           
       0.480507             0.00083928146            0.000402994197           
       0.481186             0.00108148649            0.000467774806           
       0.481865           -0.000121447471                         0           
       0.482545             0.00109395831            0.000470096182           
       0.483224            0.000698136854            0.000378106438           
       0.483903            0.000714752705            0.000388605783           
       0.484582           -0.000320584907                         0           
       0.485261            8.65803121e-05            0.000133968168           
       0.485940            0.000549554219            0.000351133978           
       0.486619            0.000102238767            0.000149786112           
       0.487299           -0.000102816597                         0           
       0.487978           -0.000111292095                         0           
       0.488657             0.00016348795            0.000198330449           
       0.489336            0.000586762573            0.000369143957           
       0.490015           -9.81939537e-05                         0           
       0.490694           -0.000320759101                         0           
       0.491374           -9.62653163e-05                         0           
       0.492053           -0.000320797971                         0           
       0.492732           -0.000320817371                         0           
       0.493411           -0.000320837022                         0           
       0.494090           -0.000320856803                         0           
       0.494769           -0.000320876201                         0           
       0.495449           -0.000320895872                         0           
       0.496128           -0.000320915604                         0           
       0.496807           -0.000320935119                         0           
       0.497486           -0.000320954815                         0           
       0.498165           -3.85607934e-05                         0           
       0.498844             0.00110368054            0.000561275663           
       0.499524            0.000253022025             0.00026971181           
       0.500203           -0.000321034326                         0           
       0.500882           -0.000321054014                         0           
       0.501561           -0.000321073765                         0           
       0.502240            -0.00032109378                         0           
       0.502919           -0.000321113705                         0           
       0.503599             -1.923522e-05                         0           
       0.504278           -1.71407811e-05                         0           
       0.504957           -0.000321174045                         0           
       0.505636           -0.000321193965                         0           
       0.506315           -0.000321214212                         0           
       0.506994           -0.000321234098                         0           
       0.507673           -0.000321253943                         0           
       0.508353           -0.000321274207                         0           
       0.509032           -0.000321294384                         0           
       0.509711           -0.000321314569                         0           
       0.510390           -0.000321335072                         0           
       0.511069             0.00040528988             0.00038438424           
       0.511748           -0.000321375859                         0           
       0.512428           -0.000321396356                         0           
       0.513107           -0.000321416538                         0           
       0.513786           -0.000321436784                         0           
       0.514465           -0.000321457374                         0           
       0.515144           -0.000321477951                         0           
       0.515823            7.96760074e-05            0.000178788389           
       0.516503            -0.00032151892                         0           
       0.517182           -0.000321539498                         0           
       0.517861           -0.000321560027                         0           
       0.518540              0.0001252222            0.000237616608           
       0.519219           -0.000321601196                         0           
       0.519898           -0.000321621928                         0           
       0.520578           -0.000321642785                         0           
       0.521257           -0.000321663372                         0           
       0.521936             0.00060358264            0.000527727399           
       0.522615           -0.000321704893                         0           
       0.523294           -0.000321725855                         0           
       0.523973           -0.000321746526                         0           
       0.524653            0.000206707477            0.000328314208           
       0.525332             0.00015329304            0.000270167175           
       0.526011           -0.000321809067                         0           
       0.526690           -0.000321830222                         0           
       0.527369           -0.000321851203                         0           
       0.528048           -0.000321872334                         0           
       0.528728           -0.000321893439                         0           
       0.529407           -0.000321914447                         0           
       0.530086           -0.000321935346                         0           
       0.530765            0.000255905539            0.000384159819           
       0.531444            -0.00032197743                         0           
       0.532123            0.000242789282            0.000373318173           
       0.532802           -0.000322020312                         0           
       0.533482           -0.000322041593                         0           
       0.534161             0.00024518337            0.000374301375           
       0.534840           -0.000322084039                         0           
       0.535519           -0.000322105563                         0           
       0.536198           -0.000322126863                         0           
       0.536877            -0.00032214787                         0           
       0.537557           -0.000322169239                         0           
       0.538236             -0.0003221908                         0           
       0.538915           -0.000322212353                         0           
       0.539594           -0.000322233877                         0           
       0.540273           -0.000322255737                         0           
       0.540952           -0.000322277354                         0           
       0.541632           -0.000322298576                         0           
       0.542311           -0.000322319992                         0           
       0.542990           -0.000322341649                         0           
       0.543669           -0.000322363486                         0           
       0.544348           -0.000322385297                         0           
       0.545027           -0.000322407062                         0           
       0.545707             0.00114897409            0.000922412292           
       0.546386            0.000385093945            0.000526026002           
       0.547065           -0.000322472412                         0           
       0.547744            0.000449570337            0.000589853592           
       0.548423            0.000406607775             0.00054057467           
       0.549102           -0.000322538094                         0           
       0.549782            0.000418884809             0.00055706456           
       0.550461            -0.00032258211                         0           
       0.551140            0.000452998427            0.000592199407           
       0.551819           -0.000322626388                         0           
       0.552498           -0.000322648584                         0           
       0.553177           -0.000322670399                         0           
       0.553856           -0.000322692292                         0           
       0.554536           -0.000322714257                         0           
       0.555215           -0.000322736557                         0           
       0.555894           -0.000322758805                         0           
       0.556573           -0.000322781184                         0           
       0.557252           -0.000322803546                         0           
       0.557931           -0.000322825805                         0           
       0.558611           -0.000322848585                         0           
       0.559290           -0.000322870786                         0           
       0.559969           -0.000322892441                         0           
       0.560648            -0.00032291467                         0           
       0.561327           -0.000322937394                         0           
       0.562006           -0.000322960012                         0           
       0.562686           -0.000322982644                         0           
       0.563365           -0.000323005359                         0           
       0.564044           -0.000323027959                         0           
       0.564723           -0.000323050509                         0           
       0.565402           -0.000323072639                         0           
       0.566081           -0.000323094917                         0           
       0.566761           -0.000323117434                         0           
       0.567440           -0.000323140408                         0           
       0.568119           -0.000323163201                         0           
       0.568798           -0.000323186315                         0           
       0.569477            -0.00032320928                         0           
       0.570156           -0.000323232357                         0           
       0.570836           -0.000323255346                         0           
       0.571515            -0.00032327785                         0           
       0.572194           -0.000323301006                         0           
       0.572873           -0.000323323632                         0           
       0.573552           -0.000323346125                         0           
       0.574231           -0.000323369075                         0           
       0.574911             0.00146318441             0.00162601281           
       0.575590           -0.000323415678                         0           
       0.576269           -0.000323438682                         0           
       0.576948           -0.000323462128                         0           
       0.577627            -0.00032348486                         0           
       0.578306           -0.000323507912                         0           
       0.578985           -0.000323531161                         0           
       0.579665           -0.000323554276                         0           
       0.580344           -0.000323577741                         0           
       0.581023            -0.00032360118                         0           
       0.581702           -0.000323624404                         0           
       0.582381           -0.000323647415                         0           
       0.583060           -0.000323671114                         0           
       0.583740            -0.00032369444                         0           
       0.584419           -0.000323717843                         0           
       0.585098           -0.000323741219                         0           
       0.585777           -0.000323764777                         0           
       0.586456           -0.000323788718                         0           
       0.587135           -0.000323812022                         0           
       0.587815           -0.000323835075                         0           
       0.588494           -0.000323858846                         0           
       0.589173           -0.000323883163                         0           
       0.589852           -0.000323906188                         0           
       0.590531           -0.000323930081                         0           
       0.591210           -0.000323953423                         0           
       0.591890           -0.000323977215                         0           
       0.592569           -0.000324000212                         0           
       0.593248           -0.000324025354                         0           
       0.593927           -0.000324049258                         0           
       0.594606           -0.000324073654                         0           
       0.595285           -0.000324096596                         0           
       0.595965           -0.000324118005                         0           
       0.596644           -0.000324140036                         0           
