################################################################################
# EDF_DataBlockID                     0.Image.Psd
# EDF_BinarySize                      4366944
# EDF_HeaderSize                      2560
# ByteOrder                           LowByteFirst
# DataType                            FloatValue
# Dim_1                               1028
# Dim_2                               1062
# Image                               0
# HeaderID                            EH:000000:000000:000000
# Size                                4366944
# Center_1                            607.5200
# Center_2                            651.5500
# Comment                             Xenocs_Cell_Window - 20251028_20perc_iodine_1.23mg
# DDummy                              0.6
# Date                                2025-10-30T05:51:11
# Delta                               0
# Dummy                               -1.5
# ExposureTime                        360
# Gamma                               0
# Intensity1                          8.52576e-10
# PSize_1                             7.5e-05
# PSize_2                             7.5e-05
# Pressure                            0.0325069
# SampleDistance                      0.450002
# SampleEnvKind                       large
# SampleEnvPN                         ElectroChemical cell
# SampleEnvSN                         1141
# Thickness                           0
# Wavelength                          1.541891e-10
# Wavelength                          1.54189e-10
# aux                                 0
# aux_dial                            0.002375
# beamx                               588.434
# beamx_dial                          588.434
# beamz                               657.808
# beamz_dial                          657.808
# det0x                               0
# det0x_dial                          6.36945
# det0xvd                             0
# det0xvd_dial                        0
# det0y                               450.002
# det0y_dial                          481.635
# det0z                               0
# det0z_dial                          1.23302
# det0zvd                             0
# det0zvd_dial                        0
# mag                                 1.818
# mag_dial                            1.818
# om                                  0.2499
# om_dial                             -0.610199
# phi                                 -0.0120535
# phi_dial                            0
# ry                                  0.599993
# ry_dial                             0.599993
# s1bot                               0.8
# s1bot_dial                          -1.66094
# s1hl                                0.8
# s1hl_dial                           -0.608437
# s1hr                                0.8
# s1hr_dial                           0.970938
# s1top                               0.8
# s1top_dial                          -0.461562
# s2bot                               0.45
# s2bot_dial                          1.36109
# s2hl                                0.45
# s2hl_dial                           -0.83375
# s2hr                                0.45
# s2hr_dial                           -0.118594
# s2top                               0.45
# s2top_dial                          1.44734
# w2theta                             32
# w2theta_dial                        32
# waxsch                              19.2605
# waxsch_dial                         -32.7355
# waxsh                               137.085
# waxsh_dial                          -43.5338
# waxsth                              26.0607
# waxsth_dial                         -19.4086
# waxsz                               67.0407
# waxsz_dial                          -23.7954
# wind                                65.9854
# wind_dial                           66.0041
# wpsi                                124
# wpsi_dial                           124
# wstod                               115
# wstod_dial                          115
# x                                   0
# x_dial                              1.00969
# z                                   0
# z_dial                              13.3172
# CountCutoff                         15302352
# DetectorModel                       Dectris EIGER2 Si 1M, S/N E-02-0362
# ThresholdSetting                    4023.88989258
# Saturation                          0
# FlatField                           Corrected
# BackgroundReductionExtra            0.02
# BackgroundCorrectionConstant        0.0026712
# Detector                            0
# Monitor                             0
# Pil_Roi0                            0
# SumForIntensity1                    3.06928e+08
# TransmittedFlux                     852576
# det                                 0
# mon                                 0
# pilai0                              3.06928e+08
# pilai1                              768303
# pilct0                              5.31689e+08
# pilct1                              768303
# pilroi0                             0
# pilroi1                             0
# sec                                 1
# title                               20251028_20perc_iodine_1.23mg_0_00359.edf
# usaxs0                              0
# Operation                           Azimuthal average I(q)
# Error_model                         ErrorModel.poisson
# Geometrical_correction              True
# Transmission_correction             True
# Thickness_correction                False
# Binning mode                        Uniform
# Binning factor                      1.0
# Psi                                 0.0
# Omega                               0.2499
# MaskInvalidPixels                   True
# DetectorEdge                        3
# MaskFiles                           ['20251028_20perc_iodine_1.23mg_0_00012_mask.edf']
################################################################################
    q(A⁻¹)                Intensity(a.u.)            Sigma_I(a.u.)            
       0.000340                 372576.07                120.693042           
       0.001019                359464.577                72.5969634           
       0.001698                349964.015                50.6508967           
       0.002377                331007.312                44.0594712           
       0.003056                307968.304                35.9177853           
       0.003735                253399.151                 28.733397           
       0.004415                205018.844                25.8452887           
       0.005094                153351.145                19.3579233           
       0.005773                101240.554                14.5619409           
       0.006452                59005.0253                10.6516227           
       0.007131                32388.7742                7.64499044           
       0.007810                16213.2617                5.36784279           
       0.008490                8118.27474                3.36689061           
       0.009169                3896.21268                2.30520271           
       0.009848                1201.30133                1.23756877           
       0.010527                462.576891               0.767954681           
       0.011206                116.675283               0.368100634           
       0.011885                54.2881753               0.233290914           
       0.012564                25.1234757               0.162935918           
       0.013244                16.8919753               0.124904235           
       0.013923                12.5671639               0.109472553           
       0.014602                 9.4491311              0.0880374529           
       0.015281                 7.5654141               0.080189362           
       0.015960                6.15193991              0.0717930455           
       0.016639                4.95855344               0.060865116           
       0.017319                4.17769498              0.0549986584           
       0.017998                3.43761994              0.0477291858           
       0.018677                3.01229777              0.0462752949           
       0.019356                2.54671021              0.0420425563           
       0.020035                2.15303422              0.0362675379           
       0.020714                1.84903621              0.0339654639           
       0.021394                 1.6290717              0.0301651018           
       0.022073                1.47459979              0.0298594043           
       0.022752                1.27323961              0.0265419393           
       0.023431                1.10142739              0.0239625378           
       0.024110                0.93563335              0.0230257842           
       0.024789               0.846579969              0.0203411629           
       0.025469                0.81686558              0.0205906071           
       0.026148                0.74617288              0.0184904942           
       0.026827               0.644706196              0.0174624257           
       0.027506               0.595868657              0.0170300902           
       0.028185               0.565952353              0.0158277042           
       0.028864               0.498153212              0.0147660986           
       0.029544               0.468909646              0.0138923157           
       0.030223               0.411995326              0.0132086842           
       0.030902               0.406558321              0.0132413135           
       0.031581               0.371344545              0.0120298494           
       0.032260               0.354411224              0.0119526171           
       0.032939               0.323956288              0.0110186319           
       0.033619               0.284533968              0.0104782267           
       0.034298               0.257913062             0.00970828645           
       0.034977               0.264388767             0.00963624051           
       0.035656               0.231056029              0.0092467545           
       0.036335               0.226867494             0.00888653452           
       0.037014               0.215804836             0.00869301437           
       0.037693               0.202770532              0.0081060888           
       0.038373                0.16942616             0.00748238935           
       0.039052                0.17504769             0.00763786769           
       0.039731               0.167609223             0.00729965068           
       0.040410               0.158755229             0.00705660156           
       0.041089               0.162590618             0.00702946964           
       0.041768                0.14403621             0.00665079764           
       0.042448               0.136231557             0.00641791097           
       0.043127               0.128275081             0.00608059072           
       0.043806               0.119557473             0.00591410691           
       0.044485               0.129657107             0.00603231753           
       0.045164               0.123749387             0.00600943791           
       0.045843               0.109278724             0.00541631179           
       0.046523              0.0962299103             0.00510020916           
       0.047202               0.107776568             0.00543524779           
       0.047881               0.107307716             0.00531882598           
       0.048560              0.0998510543             0.00517746524           
       0.049239               0.101479307             0.00501167009           
       0.049918              0.0911315759              0.0048421278           
       0.050598              0.0880636999              0.0046885128           
       0.051277              0.0932668409             0.00480972212           
       0.051956              0.0837262688              0.0045284691           
       0.052635              0.0705560931             0.00406885267           
       0.053314              0.0817416674             0.00450756343           
       0.053993               0.080129012             0.00434047371           
       0.054673              0.0730680492             0.00405249492           
       0.055352              0.0751133815             0.00416917509           
       0.056031              0.0784165043              0.0041703533           
       0.056710              0.0730516902              0.0041238067           
       0.057389              0.0611408164             0.00363802702           
       0.058068              0.0646654124             0.00377998665           
       0.058748               0.071987935             0.00403801595           
       0.059427              0.0712872006             0.00395028109           
       0.060106              0.0644010761             0.00379018048           
       0.060785              0.0616451023             0.00359708924           
       0.061464              0.0641764839             0.00375866674           
       0.062143              0.0650770897             0.00374649975           
       0.062822              0.0562806283             0.00344321887           
       0.063502              0.0619181347             0.00360510137           
       0.064181              0.0568895694             0.00341912072           
       0.064860               0.054868947             0.00340899455           
       0.065539              0.0505418201             0.00323981939           
       0.066218              0.0557722195             0.00333046061           
       0.066897              0.0575729358             0.00340992052           
       0.067577              0.0530834086             0.00330572645           
       0.068256              0.0458605695             0.00314808576           
       0.068935              0.0464845779             0.00311818291           
       0.069614              0.0499159185             0.00326338727           
       0.070293              0.0433441537              0.0030690267           
       0.070972              0.0448271529             0.00309823562           
       0.071652              0.0428311037             0.00303402642           
       0.072331              0.0496379763             0.00320801806           
       0.073010              0.0434269936             0.00306917167           
       0.073689              0.0424947198             0.00301936553           
       0.074368               0.040894438             0.00295658092           
       0.075047              0.0460617887             0.00310409347           
       0.075727              0.0395057214             0.00285695687           
       0.076406              0.0417523155             0.00299566909           
       0.077085              0.0439408979             0.00301574658           
       0.077764              0.0384593595             0.00281149264           
       0.078443              0.0429241687             0.00298859776           
       0.079122               0.040386374             0.00287105601           
       0.079802              0.0421484171             0.00296412621           
       0.080481              0.0369851981             0.00268298177           
       0.081160               0.035942393             0.00269916096           
       0.081839              0.0390388756             0.00276799182           
       0.082518              0.0408812647             0.00283494031           
       0.083197               0.040013025             0.00276109575           
       0.083876               0.040359165             0.00272693482           
       0.084556              0.0333198363             0.00254664503           
       0.085235              0.0340881718             0.00252607346           
       0.085914              0.0364776156             0.00263849225           
       0.086593              0.0330161039             0.00249402804           
       0.087272              0.0362727648              0.0025771879           
       0.087951              0.0358356769             0.00261947745           
       0.088631              0.0309323795             0.00235078788           
       0.089310              0.0337139014              0.0025062598           
       0.089989               0.031456343             0.00239259126           
       0.090668              0.0303175071             0.00237480911           
       0.091347               0.029732916             0.00236496915           
       0.092026              0.0317660167             0.00233653621           
       0.092706              0.0339900239             0.00250467378           
       0.093385              0.0280812276             0.00224162304           
       0.094064              0.0350045145             0.00253187316           
       0.094743              0.0286038024             0.00225383746           
       0.095422              0.0288011333             0.00223637916           
       0.096101              0.0309672741             0.00236671355           
       0.096781              0.0281085896             0.00222254417           
       0.097460              0.0291863204             0.00220297215           
       0.098139              0.0310070619             0.00225317553           
       0.098818               0.025784753             0.00202938633           
       0.099497              0.0307004722             0.00221894495           
       0.100176              0.0303191374             0.00214724685           
       0.100856              0.0275811252             0.00204668572           
       0.101535              0.0251603314             0.00195103446           
       0.102214              0.0283678656             0.00207168052           
       0.102893              0.0250329591             0.00192392828           
       0.103572              0.0277831418             0.00199691611           
       0.104251              0.0274913909             0.00199374186           
       0.104931              0.0244586924             0.00186343927           
       0.105610              0.0277990248             0.00199508786           
       0.106289              0.0274684423             0.00195018624           
       0.106968              0.0259652027             0.00190169959           
       0.107647              0.0277440943              0.0019669436           
       0.108326              0.0243514749             0.00181810985           
       0.109005              0.0239404213             0.00179135758           
       0.109685              0.0259486541               0.001844059           
       0.110364              0.0257530492             0.00185796108           
       0.111043              0.0243417683              0.0017991732           
       0.111722              0.0229976616              0.0017274193           
       0.112401              0.0249204824             0.00180318455           
       0.113080              0.0218114806              0.0016676273           
       0.113760              0.0245220017             0.00179774613           
       0.114439              0.0252600965             0.00179856076           
       0.115118              0.0220788952              0.0016688188           
       0.115797              0.0253340423             0.00180417053           
       0.116476              0.0253433638             0.00177749426           
       0.117155              0.0205365493             0.00161297827           
       0.117835              0.0253101088             0.00175505668           
       0.118514              0.0245783332              0.0017514283           
       0.119193              0.0268379636             0.00183018108           
       0.119872              0.0216730451             0.00162410298           
       0.120551               0.021628137              0.0016116124           
       0.121230              0.0234462775              0.0016610986           
       0.121910              0.0253086604             0.00174248973           
       0.122589              0.0218563512             0.00162095803           
       0.123268              0.0210391212             0.00155955405           
       0.123947              0.0234074143              0.0016556291           
       0.124626              0.0218434952             0.00157980912           
       0.125305              0.0223648959              0.0016063974           
       0.125985              0.0205489115             0.00152785072           
       0.126664               0.022040172             0.00156724665           
       0.127343              0.0229010566             0.00161607944           
       0.128022              0.0200943792              0.0015022021           
       0.128701              0.0210672451             0.00153012427           
       0.129380              0.0227060614             0.00156862832           
       0.130059               0.024235575             0.00162436351           
       0.130739              0.0228317963             0.00158770565           
       0.131418              0.0214862442             0.00153589874           
       0.132097              0.0215568322             0.00151868966           
       0.132776               0.020532902             0.00147549109           
       0.133455                0.01883773             0.00142425177           
       0.134134              0.0225576949             0.00155358349           
       0.134814              0.0209312693             0.00148110879           
       0.135493              0.0201481733              0.0014590193           
       0.136172              0.0213108296             0.00148919789           
       0.136851              0.0198689684             0.00144630001           
       0.137530              0.0205153775             0.00143472221           
       0.138209              0.0180255838             0.00136063575           
       0.138889              0.0217572621             0.00150144526           
       0.139568              0.0202620031             0.00144830767           
       0.140247              0.0209467543              0.0014706472           
       0.140926              0.0185398595             0.00134401656           
       0.141605              0.0197618787             0.00142285702           
       0.142284              0.0191796389             0.00137851186           
       0.142964              0.0197229819             0.00140324821           
       0.143643              0.0164003251             0.00127798414           
       0.144322              0.0210166322             0.00141643492           
       0.145001              0.0217049661             0.00146898972           
       0.145680              0.0195623388             0.00136160568           
       0.146359              0.0181621771             0.00131677223           
       0.147039              0.0200424474             0.00139464264           
       0.147718              0.0193846183             0.00134893184           
       0.148397              0.0181480278             0.00132547901           
       0.149076              0.0218212736             0.00140835534           
       0.149755              0.0187046005             0.00132403951           
       0.150434              0.0172047793             0.00127036494           
       0.151114              0.0199888798             0.00136172491           
       0.151793              0.0201716949             0.00136795047           
       0.152472              0.0177577451             0.00126082001           
       0.153151              0.0202878626             0.00136067957           
       0.153830              0.0212613429             0.00138279339           
       0.154509              0.0177783331             0.00125919116           
       0.155188              0.0160762949             0.00119695708           
       0.155868              0.0189820944             0.00129138617           
       0.156547              0.0195261492             0.00131817525           
       0.157226              0.0197296375             0.00129266288           
       0.157905              0.0171463975             0.00121519178           
       0.158584              0.0172695326             0.00121733177           
       0.159263              0.0192048921             0.00128845614           
       0.159943              0.0167304354             0.00120348618           
       0.160622              0.0184874449             0.00124068845           
       0.161301              0.0192309783             0.00128231665           
       0.161980              0.0182552269             0.00122812179           
       0.162659               0.016999896             0.00119827947           
       0.163338              0.0202068756             0.00129577712           
       0.164018               0.018156809             0.00122184203           
       0.164697              0.0159566208             0.00116013025           
       0.165376               0.017575184             0.00119094645           
       0.166055              0.0190510748             0.00124812136           
       0.166734              0.0182197637             0.00121511851           
       0.167413              0.0184850517              0.0012247898           
       0.168093              0.0189228391             0.00125093055           
       0.168772               0.018641956             0.00120530086           
       0.169451              0.0159227871             0.00113442802           
       0.170130               0.016178336              0.0011284831           
       0.170809              0.0183752654             0.00121701835           
       0.171488              0.0176543043             0.00118202971           
       0.172168              0.0203715941             0.00125754424           
       0.172847              0.0169042861              0.0011605849           
       0.173526              0.0160848405             0.00111050877           
       0.174205              0.0180204264             0.00118084177           
       0.174884              0.0163652658             0.00111944196           
       0.175563              0.0172729219             0.00115497686           
       0.176243              0.0163872533             0.00113623495           
       0.176922               0.017847483             0.00115487712           
       0.177601              0.0165592803             0.00112464325           
       0.178280              0.0169300812             0.00112447143           
       0.178959              0.0182662507             0.00117739668           
       0.179638              0.0174044622             0.00114597718           
       0.180317              0.0156697186             0.00107944585           
       0.180997              0.0171893032             0.00113671158           
       0.181676              0.0186685983             0.00117196536           
       0.182355              0.0177059351             0.00114820356           
       0.183034              0.0178506679             0.00113438394           
       0.183713              0.0164494405              0.0011022129           
       0.184392              0.0162925012             0.00109661053           
       0.185072              0.0166138372             0.00109475162           
       0.185751              0.0174292509             0.00112441465           
       0.186430              0.0141121599             0.00100468832           
       0.187109              0.0187975746             0.00117245294           
       0.187788              0.0170619991             0.00111426232           
       0.188467              0.0174317864             0.00111294394           
       0.189147              0.0165046458              0.0010939095           
       0.189826              0.0153496121              0.0010362829           
       0.190505              0.0145692125             0.00102621544           
       0.191184              0.0182902675             0.00113325022           
       0.191863              0.0162389363             0.00107006099           
       0.192542              0.0151011902              0.0010416256           
       0.193222               0.016690569             0.00107052866           
       0.193901               0.016020507             0.00106287769           
       0.194580              0.0164859176             0.00105934544           
       0.195259              0.0172083403             0.00109473727           
       0.195938              0.0168919734             0.00108721676           
       0.196617              0.0170958699             0.00107849141           
       0.197297              0.0167579845             0.00107214037           
       0.197976              0.0163162669             0.00104166592           
       0.198655              0.0163222829             0.00105323797           
       0.199334              0.0184959831             0.00111129117           
       0.200013              0.0152287381             0.00100781367           
       0.200692              0.0142600068            0.000981098473           
       0.201371              0.0149307202            0.000992599978           
       0.202051              0.0173454782             0.00107318717           
       0.202730              0.0171655676             0.00105694388           
       0.203409              0.0164295284             0.00104097666           
       0.204088               0.015413968             0.00100717524           
       0.204767              0.0136191766            0.000941747825           
       0.205446              0.0162769494             0.00103155771           
       0.206126              0.0158393812              0.0010037725           
       0.206805              0.0161641078             0.00103259889           
       0.207484              0.0152014372            0.000983375811           
       0.208163              0.0142299051            0.000957150221           
       0.208842              0.0177341934             0.00106562982           
       0.209521              0.0158553151            0.000999226024           
       0.210201              0.0133915181            0.000928561662           
       0.210880              0.0158184512            0.000989397749           
       0.211559              0.0154274003            0.000991538035           
       0.212238              0.0154377671            0.000986823974           
       0.212917              0.0153304178             0.00097973326           
       0.213596              0.0157748256            0.000999708779           
       0.214276              0.0135873369            0.000908479079           
       0.214955              0.0158191898             0.00100087094           
       0.215634              0.0163419005             0.00100998163           
       0.216313              0.0140958962             0.00093604263           
       0.216992              0.0166379437             0.00101669417           
       0.217671              0.0156132521            0.000978217584           
       0.218351               0.016801797              0.0010246923           
       0.219030              0.0146256716             0.00094094365           
       0.219709              0.0167095652             0.00101201952           
       0.220388              0.0166716049             0.00100957069           
       0.221067              0.0166420213             0.00100947425           
       0.221746              0.0148982486             0.00095414576           
       0.222426              0.0140785984             0.00091366577           
       0.223105              0.0159291986            0.000985102171           
       0.223784              0.0158600203            0.000973210602           
       0.224463              0.0150962512            0.000957049478           
       0.225142              0.0147273424            0.000930326645           
       0.225821              0.0166884558            0.000994322315           
       0.226500              0.0164840131            0.000994496461           
       0.227180              0.0143408869            0.000913307111           
       0.227859              0.0159499898            0.000967504502           
       0.228538              0.0164724066            0.000973348393           
       0.229217              0.0145685841            0.000922619417           
       0.229896              0.0134593651            0.000886374133           
       0.230575              0.0162212665              0.0009575654           
       0.231255              0.0141678991            0.000908307179           
       0.231934              0.0155140357            0.000943985116           
       0.232613               0.014529584            0.000916914172           
       0.233292               0.015051504            0.000924220412           
       0.233971              0.0158961168            0.000949354483           
       0.234650              0.0154046474            0.000945556105           
       0.235330              0.0150852076            0.000927530098           
       0.236009              0.0145672208             0.00090950183           
       0.236688              0.0142929781             0.00089767594           
       0.237367              0.0139282502            0.000887435546           
       0.238046              0.0126193426            0.000850657426           
       0.238725              0.0134645524            0.000865126969           
       0.239405              0.0140025151            0.000887711097           
       0.240084              0.0136330452            0.000870343722           
       0.240763              0.0156516141            0.000941483349           
       0.241442              0.0132637815            0.000854483787           
       0.242121              0.0138898909            0.000876069512           
       0.242800              0.0141278822            0.000887725856           
       0.243480              0.0145799824              0.0008975953           
       0.244159              0.0141599608            0.000884999828           
       0.244838              0.0143897071            0.000877470504           
       0.245517              0.0134876109            0.000861740897           
       0.246196              0.0141081812            0.000881767454           
       0.246875              0.0149419833            0.000894800266           
       0.247554              0.0131864831             0.00084913751           
       0.248234              0.0150549136            0.000893546114           
       0.248913              0.0124118222            0.000820427143           
       0.249592              0.0137798119            0.000856243568           
       0.250271              0.0147979493            0.000884735685           
       0.250950              0.0128966255            0.000831003193           
       0.251629               0.013362045            0.000838675773           
       0.252309              0.0138447136            0.000855421492           
       0.252988              0.0143266341            0.000855193041           
       0.253667              0.0132124049            0.000830859955           
       0.254346              0.0140307232            0.000856027148           
       0.255025              0.0136106283            0.000841267692           
       0.255704              0.0147106207            0.000870596561           
       0.256384              0.0138387716            0.000841482635           
       0.257063              0.0131763437            0.000825777263           
       0.257742              0.0133009465            0.000823923928           
       0.258421              0.0128973409            0.000809765312           
       0.259100               0.012682783            0.000804401816           
       0.259779              0.0138839653            0.000840919096           
       0.260459              0.0132790206            0.000824010037           
       0.261138              0.0133329666            0.000809546346           
       0.261817              0.0136941833            0.000837000434           
       0.262496              0.0123126093            0.000785873168           
       0.263175              0.0130211565            0.000809904849           
       0.263854              0.0132455919            0.000813059831           
       0.264534              0.0132172303            0.000805252168           
       0.265213              0.0127784018            0.000804249041           
       0.265892              0.0115697077            0.000755463432           
       0.266571              0.0129671643            0.000797968987           
       0.267250               0.012679619            0.000790401206           
       0.267929              0.0117788693            0.000761028194           
       0.268609              0.0131395074            0.000808183338           
       0.269288              0.0142010127            0.000826237335           
       0.269967              0.0119923065            0.000767451075           
       0.270646              0.0121341816            0.000768640292           
       0.271325              0.0124760258            0.000780693881           
       0.272004              0.0120187481            0.000758614841           
       0.272683              0.0128680715            0.000785931577           
       0.273363              0.0121252992            0.000767777393           
       0.274042              0.0132241688            0.000797082683           
       0.274721              0.0109060815            0.000723429129           
       0.275400              0.0128756683            0.000780838959           
       0.276079              0.0115802461            0.000744722586           
       0.276758              0.0119289179            0.000765389476           
       0.277438              0.0132387401            0.000797264983           
       0.278117              0.0118142984             0.00076684829           
       0.278796              0.0128856384            0.000792734388           
       0.279475              0.0125761143            0.000796092739           
       0.280154              0.0105324483            0.000718063274           
       0.280833              0.0102157993            0.000711487536           
       0.281513              0.0108237146            0.000743840619           
       0.282192              0.0115137993            0.000754098216           
       0.282871              0.0112484141            0.000750565225           
       0.283550              0.0120617802            0.000781393238           
       0.284229              0.0114882285            0.000773789331           
       0.284908              0.0127447847            0.000823605581           
       0.285588              0.0118312491            0.000784246691           
       0.286267              0.0121194222            0.000806449328           
       0.286946              0.0111620828            0.000768909591           
       0.287625              0.0105005728            0.000758475421           
       0.288304              0.0114638723            0.000781895276           
       0.288983              0.0105418639            0.000759288527           
       0.289663              0.0106290669            0.000766884845           
       0.290342              0.0104503509            0.000756362578           
       0.291021               0.012006255            0.000815083031           
       0.291700              0.0105535078            0.000754198502           
       0.292379              0.0118417789            0.000817197863           
       0.293058              0.0109616034            0.000783271303           
       0.293738              0.0105616697            0.000762393374           
       0.294417              0.0105471857            0.000770725809           
       0.295096              0.0116787747            0.000802101773           
       0.295775             0.00976591698            0.000744680082           
       0.296454              0.0102885413            0.000754459851           
       0.297133              0.0109480586            0.000781947487           
       0.297812              0.0116240387            0.000809767444           
       0.298492             0.00963788999            0.000738773076           
       0.299171                0.01022901            0.000759651602           
       0.299850              0.0117987182            0.000810287758           
       0.300529             0.00939904483            0.000731355403           
       0.301208             0.00928412555            0.000728639368           
       0.301887             0.00908653853            0.000719987535           
       0.302567             0.00858645948            0.000696389539           
       0.303246             0.00980029344            0.000748843259           
       0.303925             0.00971584401            0.000755183329           
       0.304604              0.0103509016            0.000762642193           
       0.305283             0.00910479494            0.000725872972           
       0.305962             0.00961406628            0.000741391327           
       0.306642              0.0102385742             0.00077548311           
       0.307321             0.00976325386            0.000754850395           
       0.308000             0.00843716905            0.000693399333           
       0.308679             0.00841568782            0.000707512917           
       0.309358             0.00923119975             0.00073097714           
       0.310037             0.00834136297            0.000696401645           
       0.310717              0.0070483676            0.000639539701           
       0.311396             0.00873308059            0.000716654621           
       0.312075              0.0083606693            0.000710099855           
       0.312754             0.00863706785            0.000707303305           
       0.313433             0.00845661527            0.000705962398           
       0.314112             0.00843789313            0.000705018629           
       0.314792             0.00833166593            0.000705513933           
       0.315471             0.00900307179            0.000724320526           
       0.316150             0.00937818335            0.000746097632           
       0.316829              0.0086275147            0.000720340147           
       0.317508             0.00978002553            0.000758339891           
       0.318187             0.00991825434            0.000773754383           
       0.318866             0.00924657055            0.000737030845           
       0.319546             0.00886473709            0.000732470083           
       0.320225             0.00892257084            0.000734869891           
       0.320904             0.00812852365             0.00069056369           
       0.321583             0.00947079342            0.000761827636           
       0.322262             0.00899955712            0.000731377468           
       0.322941             0.00772039614            0.000686087471           
       0.323621             0.00785994847             0.00068803579           
       0.324300             0.00734288175            0.000665540829           
       0.324979             0.00819892038            0.000704537664           
       0.325658             0.00762932604            0.000680857361           
       0.326337             0.00775287512             0.00068724398           
       0.327016             0.00862401169            0.000720225101           
       0.327696             0.00789913518            0.000696958335           
       0.328375             0.00812355334            0.000700825304           
       0.329054             0.00793677855            0.000696478975           
       0.329733             0.00975589992            0.000775001757           
       0.330412             0.00825691566            0.000707139131           
       0.331091             0.00922287588            0.000760915442           
       0.331771             0.00789047617            0.000685366906           
       0.332450             0.00665404532            0.000641601706           
       0.333129             0.00619492243            0.000617473712           
       0.333808              0.0071390039            0.000663732336           
       0.334487             0.00702103489            0.000661346401           
       0.335166             0.00777787157            0.000685892124           
       0.335846             0.00781758109            0.000699724836           
       0.336525             0.00679853491            0.000646084969           
       0.337204             0.00652896448            0.000634806254           
       0.337883             0.00673042342            0.000645380044           
       0.338562             0.00781652981            0.000699366319           
       0.339241             0.00619858517            0.000623960422           
       0.339921             0.00787251816            0.000691389462           
       0.340600             0.00882709986            0.000746010712           
       0.341279             0.00659525197            0.000637934513           
       0.341958             0.00633625371            0.000634104753           
       0.342637             0.00689119974            0.000651948139           
       0.343316             0.00698479679            0.000658260943           
       0.343995             0.00685622155            0.000662853012           
       0.344675             0.00689531871            0.000652523849           
       0.345354             0.00803297513            0.000708945301           
       0.346033             0.00645264019            0.000633737862           
       0.346712             0.00560556703            0.000594446879           
       0.347391             0.00554411621            0.000594840059           
       0.348070             0.00488143645            0.000550232238           
       0.348750             0.00548529233            0.000591701306           
       0.349429             0.00589535886            0.000605500626           
       0.350108             0.00751416095            0.000691822355           
       0.350787             0.00783473345            0.000694424283           
       0.351466             0.00719646818            0.000677797436           
       0.352145             0.00612526466            0.000625839379           
       0.352825             0.00523890724            0.000576168076           
       0.353504             0.00645171878            0.000639234244           
       0.354183             0.00703141424            0.000659646192           
       0.354862             0.00654325022            0.000651122736           
       0.355541             0.00604710932            0.000617752777           
       0.356220             0.00505702413            0.000565988848           
       0.356900              0.0079302761             0.00071550086           
       0.357579             0.00667546421            0.000648408275           
       0.358258             0.00634932225            0.000641121413           
       0.358937             0.00596071758            0.000609513381           
       0.359616             0.00588173986            0.000613916833           
       0.360295             0.00576642623            0.000608375411           
       0.360975             0.00571557835             0.00060309679           
       0.361654             0.00617637573            0.000630168995           
       0.362333              0.0057774044            0.000606376891           
       0.363012             0.00567493377            0.000608707684           
       0.363691             0.00583760084            0.000605189937           
       0.364370             0.00592259307            0.000617141801           
       0.365050             0.00546011182            0.000589385736           
       0.365729              0.0061494751            0.000631450433           
       0.366408             0.00403366496             0.00051254347           
       0.367087             0.00427458655            0.000519165512           
       0.367766             0.00559108314            0.000606125669           
       0.368445             0.00557452409            0.000594481871           
       0.369124             0.00425444402            0.000523425026           
       0.369804             0.00552553773            0.000595559117           
       0.370483             0.00569527308            0.000607282752           
       0.371162              0.0050572233            0.000575572944           
       0.371841             0.00460634469             0.00053973872           
       0.372520             0.00468467204             0.00055521875           
       0.373199             0.00482019147             0.00055646359           
       0.373879             0.00487182208            0.000565912949           
       0.374558             0.00523791782            0.000578228103           
       0.375237             0.00453589049            0.000538967379           
       0.375916             0.00532164281            0.000594970325           
       0.376595             0.00498326846            0.000564491568           
       0.377274             0.00582668462            0.000620165719           
       0.377954             0.00530624878            0.000582524653           
       0.378633             0.00536164053            0.000592957076           
       0.379312             0.00472653808            0.000556591203           
       0.379991             0.00481058919            0.000558611962           
       0.380670             0.00459742987            0.000555747664           
       0.381349             0.00489362219            0.000565137807           
       0.382029             0.00424812338            0.000534092193           
       0.382708             0.00410616371            0.000513625845           
       0.383387             0.00465214513            0.000559097574           
       0.384066             0.00474706052            0.000559590249           
       0.384745             0.00439232771            0.000540392136           
       0.385424             0.00396402328            0.000515112749           
       0.386104             0.00406055872            0.000515585852           
       0.386783             0.00446763958            0.000552510766           
       0.387462              0.0040300996            0.000511704239           
       0.388141             0.00396662631             0.00051576679           
       0.388820             0.00509380141            0.000580247067           
       0.389499             0.00382199142            0.000505446059           
       0.390178             0.00466973937            0.000560921778           
       0.390858             0.00332627378            0.000469576664           
       0.391537             0.00433826797             0.00054174875           
       0.392216             0.00382523734            0.000502332173           
       0.392895             0.00484778409            0.000567406185           
       0.393574             0.00469109119            0.000556777299           
       0.394253             0.00393733482            0.000512383514           
       0.394933             0.00370280525            0.000502567098           
       0.395612             0.00450227974            0.000538075066           
       0.396291             0.00409273651            0.000523463481           
       0.396970             0.00448128632             0.00054289505           
       0.397649             0.00370945586            0.000495455569           
       0.398328             0.00381070337            0.000499964331           
       0.399008             0.00398360459            0.000510069893           
       0.399687             0.00408577066            0.000518578194           
       0.400366             0.00424996808            0.000526872851           
       0.401045             0.00390966595            0.000504383546           
       0.401724              0.0037301238            0.000493488487           
       0.402403             0.00478855109            0.000563493959           
       0.403083              0.0032907961            0.000460394083           
       0.403762             0.00370689211            0.000491044139           
       0.404441             0.00389208619            0.000506365428           
       0.405120             0.00445559607            0.000540006797           
       0.405799             0.00531905215            0.000587452322           
       0.406478             0.00577778253            0.000612275672           
       0.407158             0.00367934689            0.000487681118           
       0.407837             0.00302602915            0.000446173278           
       0.408516             0.00423257046             0.00052308764           
       0.409195             0.00363686204             0.00049038215           
       0.409874             0.00469491114            0.000564918395           
       0.410553             0.00314159467            0.000467081889           
       0.411233             0.00405191316            0.000527705767           
       0.411912             0.00370706052            0.000511902208           
       0.412591             0.00269401909            0.000439275837           
       0.413270             0.00308341892             0.00046771908           
       0.413949             0.00387463012            0.000530031417           
       0.414628             0.00357764374            0.000508398874           
       0.415307             0.00299070749            0.000469999308           
       0.415987             0.00302278841            0.000468619621           
       0.416666              0.0029836004             0.00046277093           
       0.417345             0.00256550996            0.000436289838           
       0.418024              0.0039030293             0.00053814612           
       0.418703             0.00270696937            0.000447344804           
       0.419382             0.00369895463            0.000520363456           
       0.420062             0.00248152337            0.000427406938           
       0.420741             0.00302059331            0.000474058553           
       0.421420             0.00296995214             0.00047185062           
       0.422099             0.00357253452            0.000517522588           
       0.422778             0.00255631768            0.000440143202           
       0.423457              0.0028278111             0.00046575968           
       0.424137             0.00301914801            0.000473416113           
       0.424816             0.00376420368            0.000539660069           
       0.425495              0.0026067807            0.000448667832           
       0.426174              0.0029136074            0.000474504396           
       0.426853             0.00303671072            0.000481482355           
       0.427532              0.0030135802            0.000483700393           
       0.428212             0.00164420768            0.000359642365           
       0.428891             0.00327846388            0.000506685858           
       0.429570             0.00297487029            0.000482985888           
       0.430249             0.00215045272            0.000408511855           
       0.430928             0.00202856467            0.000405441941           
       0.431607             0.00201732084            0.000397369626           
       0.432287             0.00269137774            0.000462342356           
       0.432966              0.0033161237             0.00051772016           
       0.433645             0.00153895787            0.000353058256           
       0.434324             0.00318191091            0.000504604592           
       0.435003             0.00231509082            0.000431153912           
       0.435682              0.0026131403            0.000461824603           
       0.436361             0.00301546509             0.00049544018           
       0.437041             0.00235084515            0.000436863857           
       0.437720             0.00212734116            0.000417582618           
       0.438399             0.00117316275            0.000311719059           
       0.439078             0.00232026546            0.000451094601           
       0.439757             0.00227293419             0.00044371948           
       0.440436             0.00185321535            0.000409691413           
       0.441116             0.00257281087            0.000490616314           
       0.441795             0.00201243128            0.000434431698           
       0.442474             0.00250834632            0.000486366934           
       0.443153             0.00234745268             0.00048148666           
       0.443832             0.00274548358            0.000521586908           
       0.444511             0.00232995189            0.000478332027           
       0.445191             0.00368237434            0.000615966313           
       0.445870             0.00256351618            0.000513952385           
       0.446549              0.0026280874            0.000525872488           
       0.447228              0.0027889021            0.000538661823           
       0.447907              0.0019166153            0.000451905128           
       0.448586             0.00179842973            0.000448283118           
       0.449266             0.00230884891            0.000503257411           
       0.449945             0.00283195833            0.000555086692           
       0.450624             0.00346487141            0.000623739888           
       0.451303             0.00151553294            0.000417865122           
       0.451982             0.00194726326             0.00047073086           
       0.452661             0.00250544096            0.000543899826           
       0.453341             0.00323779474            0.000620469997           
       0.454020             0.00229411314            0.000523076083           
       0.454699             0.00234911839            0.000534144069           
       0.455378             0.00259523451             0.00056172954           
       0.456057             0.00195271354            0.000495922792           
       0.456736             0.00216618197            0.000520697961           
       0.457416             0.00166795061            0.000456922277           
       0.458095             0.00250958318            0.000568580047           
       0.458774             0.00243929678            0.000567969567           
       0.459453             0.00142210017            0.000435855663           
       0.460132             0.00236355906            0.000549767444           
       0.460811             0.00213474944            0.000541972981           
       0.461490             0.00102792924            0.000372259853           
       0.462170             0.00203233501            0.000531602777           
       0.462849             0.00150876227            0.000461007189           
       0.463528             0.00164835246            0.000480744203           
       0.464207             0.00214318992            0.000558432119           
       0.464886             0.00239792265            0.000586087843           
       0.465565            0.000991980318             0.00038110217           
       0.466245             0.00188341148            0.000526754286           
       0.466924             0.00212733497            0.000573050585           
       0.467603            0.000864793744            0.000357618883           
       0.468282             0.00216052478            0.000578658138           
       0.468961             0.00155230569              0.0004937132           
       0.469640             0.00126723019            0.000447860711           
       0.470320            0.000925741461            0.000383054118           
       0.470999            0.000804042448            0.000360356042           
       0.471678             0.00148571463            0.000494554946           
       0.472357            0.000999349447             0.00040673943           
       0.473036            0.000671408284             0.00033549313           
       0.473715            0.000696536771            0.000344386809           
       0.474395             0.00212321792            0.000609584588           
       0.475074            0.000559121881            0.000312825817           
       0.475753             0.00172648083            0.000544962412           
       0.476432             0.00150790454            0.000527840238           
       0.477111            0.000393774989            0.000266474565           
       0.477790             0.00112547768            0.000452912586           
       0.478470             0.00115846453            0.000465578507           
       0.479149             0.00100269166            0.000437627094           
       0.479828            0.000608291123            0.000340057745           
       0.480507            0.000444622662            0.000293075883           
       0.481186             0.00047843195            0.000310867752           
       0.481865            0.000663775538            0.000361630162           
       0.482545             0.00107863978            0.000466405714           
       0.483224            8.82993554e-05            0.000134357484           
       0.483903            0.000516400549            0.000330038047           
       0.484582            0.000109388332            0.000154369603           
       0.485261             0.00131151395            0.000520976109           
       0.485940            0.000111076478            0.000157731321           
       0.486619           -0.000320110451                         0           
       0.487299            0.000349308718            0.000281045467           
       0.487978             0.00144859776            0.000566497925           
       0.488657            0.000160818775            0.000196541471           
       0.489336            0.000126808311            0.000171465886           
       0.490015            0.000377181801            0.000298042987           
       0.490694            0.000163829038            0.000201858718           
       0.491374             -9.628013e-05                         0           
       0.492053            0.000191781343            0.000221657359           
       0.492732           -6.81519318e-05                         0           
       0.493411            0.000441001189            0.000335785388           
       0.494090            0.000192311671            0.000223420776           
       0.494769           -5.18855861e-05                         0           
       0.495449           -0.000320363289                         0           
       0.496128           -0.000320382988                         0           
       0.496807           -4.50893513e-05                         0           
       0.497486           -0.000320422134                         0           
       0.498165            -0.00032044208                         0           
       0.498844           -0.000320461724                         0           
       0.499524           -0.000320481462                         0           
       0.500203           -3.23992453e-05                         0           
       0.500882           -0.000320521169                         0           
       0.501561           -0.000320540887                         0           
       0.502240           -0.000320560868                         0           
       0.502919           -4.79271356e-06                         0           
       0.503599           -0.000320600733                         0           
       0.504278           -7.24164789e-06                         0           
       0.504957              -0.000320641                         0           
       0.505636           -0.000320660887                         0           
       0.506315           -0.000320681101                         0           
       0.506994           -0.000320700954                         0           
       0.507673            3.30607245e-05            0.000107264736           
       0.508353             1.2493437e-05            6.44631305e-05           
       0.509032            -0.00032076114                         0           
       0.509711             2.3543187e-05            9.00059496e-05           
       0.510390           -0.000320801759                         0           
       0.511069            -0.00032082216                         0           
       0.511748           -0.000320842479                         0           
       0.512428           -0.000320862942                         0           
       0.513107           -0.000320883091                         0           
       0.513786           -0.000320903303                         0           
       0.514465           -0.000320923859                         0           
       0.515144           -0.000320944401                         0           
       0.515823           -0.000320964757                         0           
       0.516503            0.000503018516            0.000460531053           
       0.517182           -0.000321005847                         0           
       0.517861           -0.000321026341                         0           
       0.518540           -0.000321046951                         0           
       0.519219           -0.000321067442                         0           
       0.519898            -0.00032108814                         0           
       0.520578            0.000125272215            0.000236605176           
       0.521257           -0.000321129515                         0           
       0.521936            0.000143366332            0.000256982865           
       0.522615             0.00015832602            0.000276497624           
       0.523294            0.000620801796            0.000547527437           
       0.523973           -0.000321212531                         0           
       0.524653            0.000203092171            0.000325160275           
       0.525332           -0.000321253807                         0           
       0.526011            0.000196841862            0.000319447853           
       0.526690           -0.000321296088                         0           
       0.527369           -0.000321317034                         0           
       0.528048            -0.00032133813                         0           
       0.528728             0.00074376906            0.000627838993           
       0.529407            0.000772618114            0.000648548765           
       0.530086            0.000731362004            0.000621254004           
       0.530765           -0.000321421932                         0           
       0.531444           -0.000321443051                         0           
       0.532123           -0.000321464545                         0           
       0.532802           -0.000321485863                         0           
       0.533482             0.00024717925            0.000380027019           
       0.534161           -0.000321528387                         0           
       0.534840           -0.000321549484                         0           
       0.535519           -0.000321570972                         0           
       0.536198           -0.000321592237                         0           
       0.536877           -0.000321613209                         0           
       0.537557           -0.000321634542                         0           
       0.538236            0.000331889603            0.000464786627           
       0.538915           -0.000321677584                         0           
       0.539594           -0.000321699073                         0           
       0.540273           -0.000321720897                         0           
       0.540952           -0.000321742478                         0           
       0.541632           -0.000321763665                         0           
       0.542311           -0.000321785046                         0           
       0.542990           -0.000321806666                         0           
       0.543669           -0.000321828467                         0           
       0.544348            0.000419022508            0.000558257902           
       0.545027           -0.000321871971                         0           
       0.545707           -0.000321893765                         0           
       0.546386           -0.000321915619                         0           
       0.547065           -0.000321937212                         0           
       0.547744           -0.000321958903                         0           
       0.548423           -0.000321980833                         0           
       0.549102           -0.000322002786                         0           
       0.549782           -0.000322024627                         0           
       0.550461           -0.000322046728                         0           
       0.551140           -0.000322068962                         0           
       0.551819           -0.000322090933                         0           
       0.552498           -0.000322113092                         0           
       0.553177           -0.000322134871                         0           
       0.553856           -0.000322156728                         0           
       0.554536           -0.000322178656                         0           
       0.555215           -0.000322200919                         0           
       0.555894            -0.00032222313                         0           
       0.556573            0.000633176138            0.000781713236           
       0.557252            0.000591170226            0.000732294379           
       0.557931            0.000656770609            0.000796199804           
       0.558611           -0.000322312761                         0           
       0.559290           -0.000322334925                         0           
       0.559969           -0.000322356544                         0           
       0.560648           -0.000322378736                         0           
       0.561327           -0.000322401422                         0           
       0.562006           -0.000322424003                         0           
       0.562686            0.000878287441             0.00103484767           
       0.563365            0.000703073063             0.00084453511           
       0.564044           -0.000322491837                         0           
       0.564723            -0.00032251435                         0           
       0.565402           -0.000322536443                         0           
       0.566081           -0.000322558684                         0           
       0.566761           -0.000322581163                         0           
       0.567440             -0.0003226041                         0           
       0.568119           -0.000322626855                         0           
       0.568798            -0.00032264993                         0           
       0.569477           -0.000322672857                         0           
       0.570156           -0.000322695896                         0           
       0.570836           -0.000322718847                         0           
       0.571515           -0.000322741314                         0           
       0.572194           -0.000322764431                         0           
       0.572873            -0.00032278702                         0           
       0.573552           -0.000322809476                         0           
       0.574231             0.00118813193             0.00133974665           
       0.574911           -0.000322855876                         0           
       0.575590           -0.000322878912                         0           
       0.576269           -0.000322901879                         0           
       0.576948           -0.000322925286                         0           
       0.577627            -0.00032294798                         0           
       0.578306           -0.000322970994                         0           
       0.578985           -0.000322994204                         0           
       0.579665           -0.000323017281                         0           
       0.580344           -0.000323040707                         0           
       0.581023              0.0022148472             0.00236234004           
       0.581702           -0.000323087292                         0           
       0.582381           -0.000323110265                         0           
       0.583060           -0.000323133924                         0           
       0.583740           -0.000323157212                         0           
       0.584419           -0.000323180576                         0           
       0.585098           -0.000323203913                         0           
       0.585777           -0.000323227432                         0           
       0.586456           -0.000323251333                         0           
       0.587135           -0.000323274599                         0           
       0.587815           -0.000323297613                         0           
       0.588494           -0.000323321345                         0           
       0.589173           -0.000323345622                         0           
       0.589852           -0.000323368609                         0           
       0.590531           -0.000323392462                         0           
       0.591210           -0.000323415765                         0           
       0.591890           -0.000323439518                         0           
       0.592569           -0.000323462477                         0           
       0.593248           -0.000323487577                         0           
       0.593927           -0.000323511441                         0           
       0.594606           -0.000323535797                         0           
       0.595285           -0.000323558701                         0           
       0.595965           -0.000323580074                         0           
       0.596644           -0.000323602068                         0           
