################################################################################
# EDF_DataBlockID                     0.Image.Psd
# EDF_BinarySize                      2105344
# EDF_HeaderSize                      2560
# ByteOrder                           LowByteFirst
# DataType                            FloatValue
# Dim_1                               512
# Dim_2                               1028
# Image                               0
# HeaderID                            EH:000000:000000:000000
# Size                                2105344
# Center_1                            304.9000
# Center_2                            588.7000
# Comment                             Xenocs_Cell_Window - 20251028_20perc_iodine_1.23mg
# DDummy                              0.6
# Date                                2025-10-29T21:49:44
# Delta                               21.910000
# Dummy                               -1.5
# ExposureTime                        360
# Gamma                               15.360000
# Intensity1                          8.42396e-10
# PSize_1                             7.5e-05
# PSize_2                             7.5e-05
# Pressure                            0.0326729
# SampleDistance                      0.115750
# SampleEnvKind                       large
# SampleEnvPN                         ElectroChemical cell
# SampleEnvSN                         1141
# Thickness                           0
# Wavelength                          1.541891e-10
# Wavelength                          1.54189e-10
# aux                                 0
# aux_dial                            0.002375
# beamx                               588.434
# beamx_dial                          588.434
# beamz                               657.808
# beamz_dial                          657.808
# det0x                               0
# det0x_dial                          6.36945
# det0xvd                             0
# det0xvd_dial                        0
# det0y                               450.002
# det0y_dial                          481.635
# det0z                               0
# det0z_dial                          1.23302
# det0zvd                             0
# det0zvd_dial                        0
# mag                                 1.818
# mag_dial                            1.818
# om                                  0.2499
# om_dial                             -0.610199
# phi                                 -0.0120535
# phi_dial                            0
# ry                                  0.599993
# ry_dial                             0.599993
# s1bot                               0.8
# s1bot_dial                          -1.66094
# s1hl                                0.8
# s1hl_dial                           -0.608437
# s1hr                                0.8
# s1hr_dial                           0.970938
# s1top                               0.8
# s1top_dial                          -0.461562
# s2bot                               0.45
# s2bot_dial                          1.36109
# s2hl                                0.45
# s2hl_dial                           -0.83375
# s2hr                                0.45
# s2hr_dial                           -0.118594
# s2top                               0.45
# s2top_dial                          1.44734
# w2theta                             32
# w2theta_dial                        32
# waxsch                              19.2605
# waxsch_dial                         -32.7355
# waxsh                               137.085
# waxsh_dial                          -43.5338
# waxsth                              26.0607
# waxsth_dial                         -19.4086
# waxsz                               67.0407
# waxsz_dial                          -23.7954
# wind                                65.9854
# wind_dial                           66.0041
# wpsi                                124
# wpsi_dial                           124
# wstod                               115
# wstod_dial                          115
# x                                   0
# x_dial                              1.00969
# z                                   0
# z_dial                              13.3172
# CountCutoff                         6807993
# DetectorModel                       Dectris EIGER2 Si 500K, S/N E-01-0554
# ThresholdSetting                    4023.88989258
# Saturation                          0
# FlatField                           Corrected
# BackgroundReductionExtra            0.02
# BackgroundCorrectionConstant        0.0026712
# Detector                            0
# Monitor                             0
# Pil_Roi0                            0
# SumForIntensity1                    3.03263e+08
# TransmittedFlux                     842396
# det                                 0
# mon                                 0
# pilai0                              3.03263e+08
# pilai1                              770864
# pilct0                              5.25273e+08
# pilct1                              770864
# pilroi0                             0
# pilroi1                             0
# sec                                 1
# title                               20251028_20perc_iodine_1.23mg_1_00286.edf
# usaxs0                              0
# Operation                           Azimuthal average I(q)
# Error_model                         ErrorModel.poisson
# Geometrical_correction              True
# Transmission_correction             True
# Thickness_correction                False
# Binning mode                        Uniform
# Binning factor                      1.0
# Psi                                 0.0
# Omega                               0.2499
# MaskInvalidPixels                   True
# DetectorEdge                        3
# MaskFiles                           ['WAXS_corrected.edf']
################################################################################
    q(A⁻¹)                Intensity(a.u.)            Sigma_I(a.u.)            
       0.693100              0.0168099669             0.00870841965           
       0.695741              0.0141450555             0.00651877464           
       0.698381           -2.40818257e-05                         0           
       0.701021             0.00894811866             0.00897830901           
       0.703662             0.00860565372             0.00508229743           
       0.706302             0.00522175084             0.00306502041           
       0.708942              0.0087013319             0.00510668678           
       0.711583             0.00443877085             0.00315837367           
       0.714223             0.00591333885             0.00420870465           
       0.716864              0.0139772729             0.00423364144           
       0.719504             0.00296820647             0.00210531827           
       0.722144             0.00380685371             0.00220800788           
       0.724785             0.00566242617             0.00214807878           
       0.727425             0.00888552523             0.00364024428           
       0.730065             0.00967237268             0.00268656099           
       0.732706              0.0114923797             0.00245914377           
       0.735346             0.00978360798             0.00295768944           
       0.737987             0.00667327242             0.00172611429           
       0.740627             0.00785986001             0.00279507849           
       0.743267             0.00796187141             0.00188424054           
       0.745908             0.00686204584             0.00189786053           
       0.748548              0.0071622804             0.00178721821           
       0.751189             0.00484966391             0.00198163776           
       0.753829             0.00825120116             0.00237603122           
       0.756469             0.00841254505             0.00193459742           
       0.759110              0.0103924518             0.00226598195           
       0.761750             0.00804443413              0.0017628114           
       0.764390             0.00973403774             0.00202959825           
       0.767031             0.00730243852              0.0015222875           
       0.769671             0.00740947335             0.00191280649           
       0.772312             0.00830798021             0.00154197185           
       0.774952             0.00730805872             0.00195294246           
       0.777592             0.00994140798             0.00165908858           
       0.780233             0.00964237793             0.00197133971           
       0.782873             0.00661696157             0.00156185723           
       0.785513             0.00589691058             0.00157626079           
       0.788154             0.00705840582             0.00144262344           
       0.790794             0.00671954126             0.00168278457           
       0.793435             0.00681240274             0.00152215572           
       0.796075              0.0062827348             0.00140815173           
       0.798715             0.00482870684             0.00145882519           
       0.801356             0.00905560314             0.00171942184           
       0.803996             0.00710846335             0.00155311755           
       0.806637             0.00705999362             0.00123177345           
       0.809277             0.00554822578             0.00118191727           
       0.811917              0.0059247141             0.00114177719           
       0.814558             0.00875845527              0.0014428171           
       0.817198             0.00817500075             0.00132430025           
       0.819838             0.00677793238             0.00122040335           
       0.822479              0.0057538328             0.00132039081           
       0.825119             0.00592290576             0.00114021042           
       0.827760             0.00947090706             0.00146051567           
       0.830400             0.00693058957             0.00117590091           
       0.833040             0.00807786811             0.00133004911           
       0.835681             0.00537553055             0.00123345995           
       0.838321             0.00697631801             0.00117940031           
       0.840961             0.00801397738             0.00137726703           
       0.843602             0.00751560622             0.00122310794           
       0.846242             0.00752861618             0.00122398353           
       0.848883             0.00853404537             0.00133358973           
       0.851523             0.00894856781             0.00134863059           
       0.854163             0.00688056585             0.00125761437           
       0.856804              0.0083714086             0.00124727041           
       0.859444             0.00426055101            0.000871835756           
       0.862085             0.00737102885             0.00119519256           
       0.864725             0.00650883857             0.00114939586           
       0.867365             0.00577015289             0.00100352324           
       0.870006             0.00550220368             0.00093381316           
       0.872646             0.00695560786             0.00110099401           
       0.875286             0.00788502821             0.00112777392           
       0.877927             0.00917145676             0.00117366975           
       0.880567             0.00821801924             0.00115100868           
       0.883208             0.00868826598             0.00117233232           
       0.885848             0.00698811979             0.00109166048           
       0.888488             0.00763207019             0.00107004701           
       0.891129              0.0078656251              0.0011153996           
       0.893769             0.00638397161            0.000961685521           
       0.896410             0.00751706561            0.000972950932           
       0.899050             0.00853877266             0.00114038062           
       0.901690             0.00703780112             0.00112775391           
       0.904331             0.00709783694             0.00100407133           
       0.906971               0.005453996            0.000936339522           
       0.909611             0.00973139085             0.00113856419           
       0.912252             0.00567766247            0.000898278516           
       0.914892              0.0064106401             0.00104306742           
       0.917533             0.00831717925             0.00112392976           
       0.920173             0.00612015807            0.000894516626           
       0.922813             0.00718278791             0.00101692621           
       0.925454             0.00781861959            0.000955384941           
       0.928094             0.00808447085             0.00103714944           
       0.930734             0.00897601797             0.00117656531           
       0.933375             0.00876824563             0.00115143659           
       0.936015             0.00822574344             0.00101288324           
       0.938656             0.00661616547            0.000974493747           
       0.941296             0.00718568365            0.000920386198           
       0.943936             0.00758642151            0.000927407884           
       0.946577             0.00960700254             0.00103672967           
       0.949217             0.00963242882            0.000954627733           
       0.951858             0.00796901552            0.000908934039           
       0.954498             0.00861787495             0.00109406846           
       0.957138             0.00697761395            0.000932640679           
       0.959779             0.00763477243            0.000961712608           
       0.962419             0.00764903358            0.000956207425           
       0.965059             0.00899312715             0.00109046544           
       0.967700             0.00761216391             0.00102753048           
       0.970340             0.00857732289            0.000965186479           
       0.972981             0.00774910432            0.000835843981           
       0.975621             0.00838348141            0.000924874824           
       0.978261              0.0079199358            0.000854152813           
       0.980902             0.00750443276            0.000994782821           
       0.983542             0.00805807061            0.000912862576           
       0.986182             0.00857857527            0.000924735995           
       0.988823              0.0086450088             0.00090139035           
       0.991463             0.00813437851            0.000932855386           
       0.994104             0.00885570501            0.000949506265           
       0.996744             0.00838320604            0.000942297635           
       0.999384              0.0078795493             0.00081702193           
       1.002025             0.00792739323            0.000914668726           
       1.004665             0.00874416288            0.000877900204           
       1.007306             0.00679599001            0.000769987595           
       1.009946             0.00816399588            0.000860695138           
       1.012586             0.00895409066            0.000877892628           
       1.015227             0.00753556604            0.000865205869           
       1.017867             0.00917982208            0.000917768795           
       1.020507             0.00775631573            0.000817155023           
       1.023148             0.00740507797            0.000861537098           
       1.025788             0.00859035875            0.000850837854           
       1.028429             0.00841592628            0.000882296034           
       1.031069             0.00819481382            0.000819294945           
       1.033709             0.00903790528            0.000914616209           
       1.036350             0.00768659255            0.000757555365           
       1.038990             0.00828937614            0.000801155264           
       1.041630              0.0076697556            0.000803776022           
       1.044271             0.00788060208            0.000766242101           
       1.046911             0.00774517935             0.00079903156           
       1.049552             0.00728201016            0.000813996133           
       1.052192             0.00749621332            0.000754134382           
       1.054832             0.00779052029            0.000775789426           
       1.057473              0.0060057193            0.000671470677           
       1.060113             0.00757769866            0.000735595261           
       1.062754             0.00914953289            0.000825254614           
       1.065394             0.00948958548            0.000888573397           
       1.068034             0.00909358463            0.000791431239           
       1.070675             0.00779954668            0.000764567399           
       1.073315             0.00771074076             0.00077109874           
       1.075955              0.0083829672            0.000759030312           
       1.078596             0.00878301636            0.000825722818           
       1.081236             0.00874562381            0.000788998576           
       1.083877             0.00852187405            0.000771853546           
       1.086517             0.00947530637            0.000872724778           
       1.089157             0.00772022972             0.00081739276           
       1.091798             0.00876085578            0.000763392891           
       1.094438             0.00858773888            0.000753373398           
       1.097078             0.00822019586            0.000706932701           
       1.099719             0.00840868698            0.000773372986           
       1.102359             0.00817640414             0.00071419928           
       1.105000             0.00998584202              0.0008825678           
       1.107640             0.00942373644            0.000819783279           
       1.110280             0.00853313723            0.000711767948           
       1.112921             0.00780328022            0.000731163278           
       1.115561             0.00855521519            0.000727620796           
       1.118202             0.00868344932            0.000733744402           
       1.120842             0.00965337198             0.00081309928           
       1.123482             0.00840946995            0.000755592048           
       1.126123              0.0094120447            0.000766724841           
       1.128763              0.0102490003            0.000805574658           
       1.131403             0.00839821004            0.000702665663           
       1.134044             0.00922370074            0.000757747253           
       1.136684             0.00749663857            0.000728337878           
       1.139325             0.00906720939            0.000737886952           
       1.141965             0.00966104286            0.000766702068           
       1.144605             0.00734887807            0.000637598366           
       1.147246              0.0100740412            0.000763993524           
       1.149886              0.0100234267            0.000759366547           
       1.152527             0.00726952992            0.000656094726           
       1.155167             0.00915879795             0.00070045895           
       1.157807             0.00983829191            0.000778377476           
       1.160448             0.00858000557            0.000709835682           
       1.163088             0.00820588674            0.000662152741           
       1.165728             0.00873597891            0.000701459769           
       1.168369             0.00865033787             0.00070446166           
       1.171009              0.0089127779            0.000693954138           
       1.173650             0.00818264853            0.000682369255           
       1.176290             0.00901800859            0.000700038771           
       1.178930              0.0102861999            0.000732758174           
       1.181571             0.00884172336            0.000692834636           
       1.184211             0.00967587264            0.000727349764           
       1.186851             0.00882485216             0.00067912726           
       1.189492             0.00846459187            0.000660646074           
       1.192132             0.00916887354            0.000679866284           
       1.194773              0.0108313936            0.000742166067           
       1.197413              0.0099000594            0.000679841249           
       1.200053             0.00962687043             0.00068742936           
       1.202694              0.0102644056            0.000675004703           
       1.205334             0.00830269127            0.000654247378           
       1.207975             0.00998155147            0.000684731546           
       1.210615             0.00810852077            0.000680823495           
       1.213255             0.00965384862            0.000665224731           
       1.215896             0.00764383234             0.00060265985           
       1.218536              0.0103930195            0.000675703506           
       1.221176              0.0082466788            0.000654389542           
       1.223817               0.010438741             0.00069112331           
       1.226457              0.0112367995             0.00073150154           
       1.229098              0.0106263319            0.000711319081           
       1.231738             0.00962389325            0.000680268509           
       1.234378              0.0106016128            0.000670899075           
       1.237019             0.00999181322            0.000671177492           
       1.239659             0.00950763286            0.000649010488           
       1.242299             0.00982404017            0.000651339562           
       1.244940              0.0102065826            0.000645684226           
       1.247580              0.0102428994            0.000666613202           
       1.250221             0.00940913108            0.000634964083           
       1.252861              0.0105873834            0.000641221183           
       1.255501               0.011460349            0.000724378992           
       1.258142               0.010084827            0.000638529348           
       1.260782             0.00970062552            0.000639798516           
       1.263423             0.00970129634            0.000614795266           
       1.266063              0.0105921109            0.000658443644           
       1.268703              0.0100796851            0.000636989095           
       1.271344              0.0101847585            0.000662000813           
       1.273984              0.0103468942            0.000644431243           
       1.276624              0.0108867868            0.000648611943           
       1.279265              0.0119423723            0.000690610689           
       1.281905              0.0103954454            0.000647191411           
       1.284546              0.0104256155            0.000626476305           
       1.287186              0.0103188636            0.000611484868           
       1.289826               0.011153118            0.000669999995           
       1.292467               0.010354329            0.000631342491           
       1.295107              0.0104533973             0.00062805415           
       1.297747              0.0100895437            0.000590443531           
       1.300388              0.0111485117            0.000676593541           
       1.303028              0.0103288134            0.000621717871           
       1.305669              0.0107148178            0.000648306366           
       1.308309               0.010416029            0.000632908609           
       1.310949             0.00965849679            0.000608846778           
       1.313590               0.010255496            0.000607770078           
       1.316230              0.0104005918            0.000653147005           
       1.318871              0.0111507007            0.000662343058           
       1.321511              0.0107286372            0.000637644891           
       1.324151              0.0109097971            0.000623943116           
       1.326792             0.00989426878             0.00059786789           
       1.329432              0.0108402882            0.000621381324           
       1.332072              0.0105205081            0.000603024711           
       1.334713              0.0111073577             0.00063950448           
       1.337353               0.012199478            0.000642741697           
       1.339994              0.0109450726            0.000638875733           
       1.342634              0.0106955823            0.000605618944           
       1.345274              0.0120393727            0.000664966978           
       1.347915              0.0112752561            0.000625748278           
       1.350555              0.0109268631            0.000626793571           
       1.353195              0.0120281381            0.000660851378           
       1.355836              0.0110007175            0.000622142317           
       1.358476              0.0104374911            0.000588524337           
       1.361117              0.0108747518            0.000601550036           
       1.363757              0.0104481739            0.000607637871           
       1.366397              0.0110692438             0.00060651058           
       1.369038               0.010764754            0.000604066065           
       1.371678                0.01104516             0.00060648861           
       1.374319              0.0116722238            0.000618098379           
       1.376959              0.0122905044            0.000627879127           
       1.379599              0.0110857758              0.0006390669           
       1.382240              0.0129913162            0.000650202071           
       1.384880              0.0109809758              0.0006331861           
       1.387520              0.0104477441            0.000586573875           
       1.390161              0.0106786735            0.000563227536           
       1.392801              0.0105925997            0.000584458694           
       1.395442              0.0113650759            0.000613663141           
       1.398082              0.0113265986            0.000573695176           
       1.400722              0.0113088318            0.000600461033           
       1.403363              0.0108702809            0.000619681563           
       1.406003              0.0104602116             0.00056889478           
       1.408644              0.0103629003            0.000593175717           
       1.411284              0.0113817976            0.000588650369           
       1.413924              0.0106251078            0.000566637912           
       1.416565              0.0111243479            0.000577519855           
       1.419205             0.00997733911            0.000570542172           
       1.421845              0.0120388705            0.000626351573           
       1.424486              0.0101675509            0.000553300081           
       1.427126              0.0114828709             0.00061081895           
       1.429767              0.0106522505            0.000553530383           
       1.432407              0.0116100133            0.000604764187           
       1.435047              0.0118284072            0.000573291091           
       1.437688              0.0111211936            0.000564200098           
       1.440328              0.0107255683            0.000565494506           
       1.442968              0.0106476526            0.000576060868           
       1.445609              0.0115673123            0.000581376439           
       1.448249              0.0109214309            0.000579215416           
       1.450890              0.0122135603            0.000608523799           
       1.453530               0.011108579            0.000607156803           
       1.456170             0.00913803114            0.000534446166           
       1.458811              0.0115804669            0.000575306235           
       1.461451              0.0102154167            0.000541753669           
       1.464092              0.0108491791            0.000561956054           
       1.466732              0.0103938311             0.00054531019           
       1.469372              0.0105830461            0.000537373796           
       1.472013              0.0110436912             0.00059204738           
       1.474653              0.0112251746            0.000587684361           
       1.477293              0.0113828077            0.000604269441           
       1.479934              0.0103388514            0.000549522581           
       1.482574              0.0106236236            0.000538848367           
       1.485215              0.0112703713            0.000565345283           
       1.487855              0.0102213061            0.000545493349           
       1.490495              0.0104768673            0.000550236713           
       1.493136               0.010984487            0.000555686359           
       1.495776              0.0104062834            0.000538400764           
       1.498416             0.00964798741            0.000535374398           
       1.501057              0.0112162775            0.000564527832           
       1.503697              0.0105206443            0.000534527166           
       1.506338              0.0104318379            0.000541992743           
       1.508978              0.0106144942            0.000541340581           
       1.511618              0.0109191466            0.000584740131           
       1.514259              0.0110596533            0.000568159817           
       1.516899              0.0107992817            0.000546648697           
       1.519540             0.00985020664            0.000530494649           
       1.522180               0.010491072            0.000552289348           
       1.524820             0.00949781506            0.000522546725           
       1.527461              0.0110300937            0.000565907515           
       1.530101             0.00999110834            0.000533208937           
       1.532741             0.00947799798            0.000516322648           
       1.535382              0.0104050322            0.000549693385           
       1.538022              0.0109955356            0.000532331665           
       1.540663              0.0102180448            0.000551941892           
       1.543303              0.0106827776            0.000524011827           
       1.545943              0.0107826644            0.000557214752           
       1.548584              0.0111559896            0.000576952849           
       1.551224              0.0105331097            0.000518341383           
       1.553864              0.0110471786            0.000560931174           
       1.556505             0.00954482294            0.000503682187           
       1.559145              0.0108454292            0.000543480254           
       1.561786              0.0110936361            0.000550087406           
       1.564426              0.0101087508            0.000508768944           
       1.567066             0.00989371056             0.00052739154           
       1.569707             0.00929045275             0.00050187988           
       1.572347              0.0103816648            0.000548096713           
       1.574988              0.0100033543            0.000512102594           
       1.577628             0.00864763341            0.000496494468           
       1.580268             0.00926720318            0.000497984887           
       1.582909             0.00998782894            0.000547982815           
       1.585549              0.0105478692            0.000546787647           
       1.588189             0.00880270333            0.000488608197           
       1.590830             0.00891713363            0.000491156532           
       1.593470             0.00911966358            0.000516370291           
       1.596111             0.00818788672            0.000477689594           
       1.598751             0.00934005403            0.000494359992           
       1.601391             0.00931647708            0.000504628815           
       1.604032             0.00899132556            0.000506108287           
       1.606672             0.00828243657            0.000471949889           
       1.609312             0.00910313218            0.000516492594           
       1.611953             0.00863827468            0.000492346296           
       1.614593             0.00902229632            0.000493571027           
       1.617234             0.00988937381            0.000535541547           
       1.619874             0.00873845647            0.000501426364           
       1.622514             0.00919907823            0.000507454094           
       1.625155              0.0097375726            0.000525179787           
       1.627795             0.00864132785            0.000482613388           
       1.630436             0.00875749474            0.000483309558           
       1.633076             0.00898122356            0.000495863466           
       1.635716             0.00929816846            0.000496686883           
       1.638357             0.00839708274            0.000473250878           
       1.640997             0.00835154548            0.000486262723           
       1.643637              0.0093724952            0.000501277616           
       1.646278             0.00796271281            0.000476559153           
       1.648918             0.00877701366            0.000501698486           
       1.651559              0.0083258254            0.000492425809           
       1.654199             0.00903718856            0.000498967966           
       1.656839             0.00760815426            0.000457980744           
       1.659480             0.00946164454            0.000529908267           
       1.662120             0.00895265543            0.000485476556           
       1.664761             0.00863786433            0.000495339727           
       1.667401              0.0079922272            0.000455401539           
       1.670041              0.0092124726            0.000496387366           
       1.672682             0.00842860193            0.000472848139           
       1.675322             0.00838544065            0.000468603055           
       1.677962             0.00839688232            0.000463749825           
       1.680603              0.0086073149            0.000470969683           
       1.683243             0.00856236672            0.000490084364           
       1.685884             0.00818916715            0.000482824308           
       1.688524             0.00930685422            0.000504770009           
       1.691164             0.00829839182            0.000476746616           
       1.693805             0.00899732377            0.000501871122           
       1.696445             0.00916524409            0.000509471026           
       1.699085             0.00931658917            0.000496448447           
       1.701726             0.00846629947            0.000455895729           
       1.704366             0.00903152307            0.000496046564           
       1.707007             0.00807019984            0.000458451788           
       1.709647             0.00900102426             0.00048963734           
       1.712287              0.0083496778            0.000475693559           
       1.714928             0.00840225848            0.000481036389           
       1.717568             0.00916482733            0.000473254538           
       1.720209             0.00909341612            0.000493766305           
       1.722849             0.00915773055            0.000492961879           
       1.725489             0.00856400751            0.000477114313           
       1.728130             0.00864772509             0.00050951107           
       1.730770               0.007809066            0.000459835991           
       1.733410             0.00773892293            0.000450570508           
       1.736051             0.00856422182            0.000477286192           
       1.738691              0.0082693024            0.000459489071           
       1.741332             0.00791852024            0.000462785451           
       1.743972             0.00851163527            0.000495479476           
       1.746612             0.00787662061            0.000457694483           
       1.749253             0.00887557357            0.000495446717           
       1.751893             0.00888117473            0.000491965209           
       1.754533             0.00826562208            0.000474166849           
       1.757174             0.00816517561            0.000466863662           
       1.759814             0.00799157686            0.000454872919           
       1.762455             0.00899513546            0.000491450668           
       1.765095             0.00923623236            0.000476391139           
       1.767735             0.00871359054            0.000476991118           
       1.770376             0.00870653112            0.000478054829           
       1.773016             0.00883812318            0.000478427735           
       1.775657             0.00872626112              0.0004685502           
       1.778297             0.00788174705            0.000441466166           
       1.780937             0.00903863151            0.000498994325           
       1.783578             0.00856129915            0.000473496563           
       1.786218              0.0090321355            0.000507551601           
       1.788858             0.00871805277            0.000473595985           
       1.791499             0.00851401124            0.000462764727           
       1.794139             0.00908291899             0.00047409784           
       1.796780             0.00881799811            0.000464880684           
       1.799420             0.00903456434            0.000467948875           
       1.802060             0.00873969348            0.000463966619           
       1.804701             0.00899651571            0.000451738015           
       1.807341             0.00840907897              0.0004589195           
       1.809981             0.00922626641            0.000482303972           
       1.812622             0.00924227003            0.000474031523           
       1.815262               0.010413438            0.000513858756           
       1.817903             0.00915745731            0.000474734845           
       1.820543             0.00893913106            0.000476350269           
       1.823183             0.00894380542            0.000476212855           
       1.825824              0.0085479328            0.000444771875           
       1.828464             0.00955588472            0.000490271098           
       1.831105             0.00964372203            0.000478902115           
       1.833745             0.00904990736            0.000473831617           
       1.836385             0.00909946844             0.00048868669           
       1.839026             0.00834896589            0.000466621278           
       1.841666             0.00947147532            0.000495238383           
       1.844306             0.00930968286            0.000477593403           
       1.846947             0.00841995066            0.000458179835           
       1.849587             0.00926463414            0.000530713043           
       1.852228             0.00822157147            0.000452075018           
       1.854868             0.00837641682            0.000482026519           
       1.857508             0.00916185029            0.000499175022           
       1.860149             0.00922298651            0.000509937234           
       1.862789             0.00901293525            0.000486570128           
       1.865429             0.00894846245            0.000506084894           
       1.868070             0.00846749499            0.000485734929           
       1.870710              0.0092163095            0.000495074646           
       1.873351             0.00893330456            0.000493439812           
       1.875991              0.0085534301            0.000490714434           
       1.878631             0.00908952337            0.000496170399           
       1.881272             0.00933359448            0.000499419014           
       1.883912             0.00749131904            0.000465638763           
       1.886553             0.00885738801            0.000500656721           
       1.889193             0.00869038794            0.000495067139           
       1.891833             0.00792875664            0.000491099928           
       1.894474             0.00854501361            0.000505387937           
       1.897114             0.00842131303              0.0004855006           
       1.899754              0.0085524663            0.000491313711           
       1.902395             0.00899869022            0.000494114694           
       1.905035             0.00933428126            0.000533019685           
       1.907676             0.00921543593             0.00049916424           
       1.910316             0.00954826515            0.000521589196           
       1.912956             0.00874875777            0.000488290583           
       1.915597              0.0087574443            0.000491263276           
       1.918237             0.00863707714            0.000503856679           
       1.920878             0.00870473886            0.000503755728           
       1.923518             0.00875535984            0.000505432721           
       1.926158             0.00831848965            0.000486268453           
       1.928799             0.00835592507             0.00048172005           
       1.931439             0.00935304329            0.000523019885           
       1.934079             0.00833126513            0.000514591988           
       1.936720              0.0101361884            0.000525900906           
       1.939360             0.00956472533            0.000545017556           
       1.942001             0.00920568609            0.000490071073           
       1.944641             0.00860129958             0.00048304155           
       1.947281             0.00876292916            0.000483064842           
       1.949922             0.00890457904            0.000502979875           
       1.952562             0.00861133065             0.00051013283           
       1.955202             0.00940150641            0.000532374385           
       1.957843             0.00869955803            0.000498833839           
       1.960483             0.00898641894             0.00053005889           
       1.963124             0.00844662868            0.000503350026           
       1.965764             0.00884509162            0.000485740321           
       1.968404             0.00744879373            0.000441543068           
       1.971045             0.00829624534            0.000475095065           
       1.973685             0.00865546602            0.000509013774           
       1.976326             0.00858622239            0.000500005925           
       1.978966             0.00824000786            0.000494120161           
       1.981606             0.00752446304             0.00048202643           
       1.984247             0.00917370307            0.000528738253           
       1.986887             0.00799327892            0.000487637531           
       1.989527             0.00836214243            0.000493390711           
       1.992168             0.00862242159            0.000519840841           
       1.994808             0.00867591693            0.000519215708           
       1.997449             0.00873241029            0.000510205858           
       2.000089             0.00822754079            0.000493273903           
       2.002729             0.00852612097            0.000502445727           
       2.005370              0.0080860121            0.000484041289           
       2.008010             0.00730181975            0.000480046023           
       2.010650             0.00902545712            0.000537688229           
       2.013291             0.00769427556            0.000476320988           
       2.015931             0.00792139981            0.000479883628           
       2.018572             0.00837440705             0.00052775358           
       2.021212             0.00843036841            0.000520000349           
       2.023852             0.00749298147            0.000463987938           
       2.026493             0.00884667557            0.000526686062           
       2.029133             0.00782488073            0.000485368674           
       2.031774             0.00755933649            0.000500665845           
       2.034414             0.00865680824            0.000492990358           
       2.037054             0.00782329171            0.000480535009           
       2.039695             0.00835340226            0.000492798621           
       2.042335             0.00831012738            0.000510797693           
       2.044975             0.00747297257            0.000478511943           
       2.047616             0.00853742663             0.00051018704           
       2.050256             0.00813136211             0.00050261822           
       2.052897              0.0072049638            0.000481843541           
       2.055537             0.00764256689            0.000479616968           
       2.058177             0.00854178977            0.000496537038           
       2.060818             0.00800469479            0.000503542048           
       2.063458             0.00721882252            0.000498316943           
       2.066098             0.00743704832            0.000477132187           
       2.068739              0.0075172536            0.000487154538           
       2.071379             0.00739787526             0.00049587477           
       2.074020             0.00725045413            0.000480240315           
       2.076660             0.00708424467            0.000478541369           
       2.079300              0.0076716031            0.000510186061           
       2.081941             0.00708154302            0.000448809314           
       2.084581             0.00788264764            0.000499799967           
       2.087222             0.00781103269            0.000479814743           
       2.089862             0.00747976011            0.000511389636           
       2.092502             0.00794595707            0.000510934294           
       2.095143             0.00731867896            0.000506362179           
       2.097783             0.00827367261            0.000521248652           
       2.100423             0.00798407367            0.000493402396           
       2.103064             0.00767755295            0.000502047433           
       2.105704             0.00803484064            0.000511052429           
       2.108345             0.00828408899            0.000498541974           
       2.110985             0.00846540478            0.000538274608           
       2.113625             0.00811490376            0.000531612428           
       2.116266             0.00773970001            0.000526542967           
       2.118906             0.00703038501            0.000467682492           
       2.121546             0.00720433355            0.000464393639           
       2.124187             0.00774981563            0.000505587794           
       2.126827             0.00711335131            0.000489788095           
       2.129468             0.00762808742            0.000508495186           
       2.132108             0.00757458698            0.000492989156           
       2.134748             0.00868191931            0.000525747862           
       2.137389             0.00791238681            0.000523613845           
       2.140029             0.00745170049              0.0004549197           
       2.142670             0.00668653907            0.000460545249           
       2.145310             0.00700666944            0.000458862054           
       2.147950             0.00715852312            0.000477384618           
       2.150591              0.0066518905            0.000455530977           
       2.153231             0.00790516923            0.000511165713           
       2.155871              0.0076145093            0.000484656581           
       2.158512             0.00749114309            0.000501591468           
       2.161152             0.00759261078              0.0004891523           
       2.163793              0.0085939114            0.000518065181           
       2.166433             0.00786766474            0.000509023441           
       2.169073             0.00733767153            0.000480635525           
       2.171714             0.00750343796            0.000482400921           
       2.174354             0.00796046633            0.000519188585           
       2.176995             0.00759008882            0.000504833362           
       2.179635             0.00694197765             0.00051018087           
       2.182275             0.00753639817            0.000501891074           
       2.184916             0.00701803365             0.00046779331           
       2.187556             0.00764073031            0.000483213312           
       2.190196             0.00780740568             0.00051042921           
       2.192837             0.00742923122            0.000495204651           
       2.195477             0.00732105937            0.000468669119           
       2.198118             0.00732839081            0.000480918699           
       2.200758             0.00821309779            0.000522327049           
       2.203398             0.00662069823            0.000471965662           
       2.206039             0.00692809575            0.000456927417           
       2.208679             0.00713427176            0.000474467558           
       2.211319               0.007682013            0.000495183499           
       2.213960             0.00672705558              0.0004695927           
       2.216600             0.00786678454             0.00052532563           
       2.219241             0.00820991163             0.00051290192           
       2.221881             0.00666420695            0.000463053679           
       2.224521             0.00712187094            0.000484555567           
       2.227162             0.00737936696            0.000483361738           
       2.229802             0.00770524565            0.000509380894           
       2.232443              0.0074747412            0.000493790583           
       2.235083             0.00788443603            0.000522101858           
       2.237723             0.00780359855            0.000498457425           
       2.240364             0.00702551055            0.000484606302           
       2.243004             0.00734425102            0.000491522269           
       2.245644             0.00736511938            0.000497146936           
       2.248285             0.00709342945             0.00047811731           
       2.250925             0.00728003657            0.000487307737           
       2.253566              0.0078671216            0.000541568333           
       2.256206             0.00690947061            0.000497388772           
       2.258846             0.00810236221            0.000512373002           
       2.261487             0.00841265357            0.000547983828           
       2.264127             0.00730069186            0.000493018632           
       2.266767             0.00753620829            0.000514253327           
       2.269408             0.00765187372            0.000520306648           
       2.272048              0.0074119469            0.000509027801           
       2.274689             0.00757265857            0.000521296218           
       2.277329             0.00734572086            0.000483423377           
       2.279969             0.00761799647            0.000524026345           
       2.282610             0.00715480618            0.000493721008           
       2.285250             0.00804882929            0.000501213349           
       2.287891              0.0071202736            0.000505429472           
       2.290531             0.00697651636            0.000507026576           
       2.293171             0.00774569356            0.000520404262           
       2.295812             0.00877537505            0.000551688967           
       2.298452             0.00753930926             0.00053474726           
       2.301092             0.00730024924            0.000488905344           
       2.303733             0.00765525536            0.000520852766           
       2.306373             0.00790065773            0.000537468417           
       2.309014             0.00715336665            0.000501442034           
       2.311654             0.00720809613            0.000525276514           
       2.314294             0.00741305372            0.000490771215           
       2.316935             0.00688509724            0.000474926174           
       2.319575             0.00727929719            0.000511659626           
       2.322215             0.00737693469            0.000536799951           
       2.324856             0.00690778541            0.000477580586           
       2.327496             0.00694657404            0.000509241886           
       2.330137             0.00778684831            0.000515938134           
       2.332777             0.00705166233            0.000506251237           
       2.335417             0.00669411241            0.000478525975           
       2.338058             0.00641746001            0.000482529569           
       2.340698              0.0078561095            0.000529687551           
       2.343339             0.00723774822            0.000519602408           
       2.345979             0.00728837422             0.00049330146           
       2.348619             0.00718098691            0.000507552408           
       2.351260             0.00665658276            0.000485821563           
       2.353900             0.00751467553            0.000514550847           
       2.356540             0.00667443649            0.000484243226           
       2.359181             0.00718407717            0.000495347611           
       2.361821             0.00663281894            0.000459768056           
       2.364462             0.00690805899            0.000490735497           
       2.367102             0.00747706146            0.000524667745           
       2.369742             0.00649374966            0.000514656266           
       2.372383             0.00726605946            0.000492953824           
       2.375023             0.00684398691            0.000502925434           
       2.377663             0.00723550209            0.000494433562           
       2.380304             0.00617282212            0.000464298327           
       2.382944             0.00712893757            0.000475245701           
       2.385585             0.00671832649            0.000492044319           
       2.388225             0.00592275564            0.000459822307           
       2.390865             0.00632454687            0.000470282255           
       2.393506             0.00719906057             0.00049227757           
       2.396146             0.00653723658            0.000507216527           
       2.398787             0.00691231073            0.000480662048           
       2.401427              0.0074270528            0.000480914108           
       2.404067             0.00687081235            0.000472872485           
       2.406708             0.00769333608            0.000494376681           
       2.409348             0.00671457484            0.000489892355           
       2.411988             0.00565683923            0.000440561306           
       2.414629             0.00760321439            0.000526668451           
       2.417269             0.00682980944            0.000504991552           
       2.419910             0.00776818074            0.000539816398           
       2.422550              0.0064681778            0.000471270837           
       2.425190             0.00603615123            0.000479891749           
       2.427831             0.00727623326            0.000523924038           
       2.430471             0.00760958395            0.000510444494           
       2.433112              0.0071475515            0.000481725208           
       2.435752             0.00742225819            0.000519520347           
       2.438392             0.00597842671               0.000450036           
       2.441033             0.00738041995             0.00052992919           
       2.443673             0.00658360556            0.000500890685           
       2.446313             0.00583031055            0.000471780127           
       2.448954             0.00670866437            0.000481850756           
       2.451594             0.00671448281            0.000518326785           
       2.454235             0.00703584764            0.000497824901           
       2.456875             0.00827194433            0.000564810389           
       2.459515             0.00714477709            0.000538508903           
       2.462156             0.00767640449            0.000527003541           
       2.464796             0.00695137005            0.000495028539           
       2.467436             0.00783472623            0.000543471547           
       2.470077             0.00836046828             0.00053211485           
       2.472717             0.00808589083            0.000525570793           
       2.475358              0.0081216516            0.000532223975           
       2.477998             0.00777810707            0.000512065141           
       2.480638             0.00781497199            0.000522397651           
       2.483279             0.00811662769             0.00055642656           
       2.485919             0.00708657551            0.000501063782           
       2.488560             0.00682572312            0.000490381358           
       2.491200             0.00699225721            0.000511086129           
       2.493840             0.00727228909             0.00055151888           
       2.496481             0.00751776874            0.000551577373           
       2.499121             0.00738079936            0.000531587288           
       2.501761             0.00682767034            0.000518054628           
       2.504402             0.00743653266            0.000532761345           
       2.507042             0.00673038757            0.000503081447           
       2.509683             0.00681454089            0.000498480049           
       2.512323             0.00811605981            0.000571339359           
       2.514963             0.00721115449            0.000531893922           
       2.517604             0.00795031079            0.000579518303           
       2.520244             0.00601504816            0.000472570689           
       2.522884             0.00797016574             0.00055175685           
       2.525525              0.0076173684            0.000545529324           
       2.528165             0.00699563332            0.000514643124           
       2.530806             0.00684593954            0.000517980995           
       2.533446             0.00724058662            0.000521331645           
       2.536086             0.00708161608            0.000510962231           
       2.538727             0.00712933672            0.000491839435           
       2.541367             0.00750035978            0.000509444533           
       2.544008             0.00656524417            0.000492242356           
       2.546648             0.00703297601             0.00051821414           
       2.549288             0.00659397441            0.000512004154           
       2.551929             0.00704446002            0.000520769114           
       2.554569             0.00746983687            0.000516643433           
       2.557209             0.00738632718            0.000518465527           
       2.559850             0.00694004347            0.000504172423           
       2.562490             0.00695970188            0.000521826769           
       2.565131             0.00794847422             0.00057821156           
       2.567771             0.00691930177            0.000520140524           
       2.570411             0.00653921398            0.000500181604           
       2.573052             0.00666061181            0.000511160378           
       2.575692             0.00774922439             0.00054801365           
       2.578332              0.0069188903            0.000519963306           
       2.580973             0.00648065684             0.00049843902           
       2.583613             0.00656547913            0.000489744615           
       2.586254             0.00630423706            0.000479235233           
       2.588894             0.00699736401             0.00052430771           
       2.591534             0.00589612117            0.000498220155           
       2.594175             0.00663774353            0.000518650308           
       2.596815             0.00770951306            0.000562252076           
       2.599456             0.00655900953            0.000491790741           
       2.602096             0.00564323344            0.000459640017           
       2.604736             0.00709781437            0.000527708411           
       2.607377             0.00802962594            0.000546488171           
       2.610017             0.00616208518            0.000470359235           
       2.612657             0.00677905877             0.00052474655           
       2.615298             0.00716746002            0.000526789743           
       2.617938             0.00765903205            0.000582534502           
       2.620579             0.00741560172            0.000550268383           
       2.623219               0.006798386             0.00052611993           
       2.625859             0.00653455461            0.000501512096           
       2.628500             0.00630695013            0.000489471169           
       2.631140             0.00680998198            0.000516453359           
       2.633780             0.00748099301            0.000540829092           
       2.636421             0.00683869224            0.000529807221           
       2.639061             0.00708191663            0.000507544411           
       2.641702             0.00818297623            0.000558205178           
       2.644342              0.0069468311             0.00051650933           
       2.646982             0.00790642678            0.000542791833           
       2.649623             0.00756592178            0.000556440516           
       2.652263             0.00653009067            0.000511761115           
       2.654904             0.00752021545            0.000549742755           
       2.657544             0.00676783484            0.000491215801           
       2.660184             0.00682857073            0.000522176765           
       2.662825              0.0071407456            0.000546367528           
       2.665465             0.00620987929            0.000492782322           
       2.668105             0.00669128937            0.000539168924           
       2.670746              0.0078502491            0.000539489994           
       2.673386             0.00821954168            0.000568914833           
       2.676027              0.0092994697            0.000595423392           
       2.678667             0.00967383066            0.000592563106           
       2.681307              0.0120686066            0.000650311795           
       2.683948              0.0126226334            0.000683329689           
       2.686588              0.0111486261            0.000631543731           
       2.689229              0.0103903644            0.000595762581           
       2.691869              0.0112440489            0.000655018137           
       2.694509             0.00898598032              0.0005858862           
       2.697150              0.0070946752            0.000512145095           
       2.699790             0.00782676434            0.000563932098           
       2.702430             0.00622882433            0.000480885859           
       2.705071             0.00743616153            0.000542930876           
       2.707711             0.00706340568            0.000513577846           
       2.710352             0.00667070847            0.000527358724           
       2.712992             0.00722446882            0.000558958925           
       2.715632             0.00712007085            0.000514842286           
       2.718273             0.00735761576            0.000542392301           
       2.720913             0.00726690052            0.000537504496           
       2.723553             0.00721653297            0.000539232384           
       2.726194             0.00819251053            0.000600583541           
       2.728834             0.00814404573            0.000599085397           
       2.731475             0.00780207969            0.000541170686           
       2.734115             0.00637054337            0.000504186138           
       2.736755              0.0070157361            0.000533456788           
       2.739396             0.00752113205            0.000549136963           
       2.742036             0.00680329832            0.000546593432           
       2.744677             0.00681334248            0.000530737655           
       2.747317             0.00712332076             0.00053880685           
       2.749957             0.00643219407            0.000515594869           
       2.752598             0.00721293451            0.000551915796           
       2.755238              0.0076956908            0.000580377685           
       2.757878             0.00713183219            0.000553826357           
       2.760519             0.00769567639            0.000569202696           
       2.763159             0.00798620399            0.000574052892           
       2.765800             0.00768226728            0.000536552482           
       2.768440             0.00816976831            0.000557391117           
       2.771080             0.00787872168            0.000551941573           
       2.773721             0.00641828963            0.000511017737           
       2.776361             0.00799376013            0.000578165862           
       2.779001             0.00725079124            0.000570245918           
       2.781642             0.00706315435            0.000558671407           
       2.784282             0.00629385915             0.00053604227           
       2.786923             0.00744119614             0.00058798878           
       2.789563              0.0066743378            0.000536328663           
       2.792203             0.00763732006            0.000548063177           
       2.794844             0.00674680606            0.000564564184           
       2.797484             0.00701223577            0.000543190545           
       2.800125             0.00613693951            0.000534329671           
       2.802765              0.0064897122            0.000540019872           
       2.805405             0.00632596462            0.000534968041           
       2.808046             0.00678359008            0.000563718926           
       2.810686             0.00718773644            0.000533199143           
       2.813326             0.00806517859            0.000586678992           
       2.815967             0.00794645921            0.000598902777           
       2.818607             0.00656623737            0.000519518409           
       2.821248             0.00732334887            0.000537262147           
       2.823888             0.00678263569            0.000536708637           
       2.826528             0.00619781404            0.000496862337           
       2.829169             0.00716459834            0.000559555957           
       2.831809             0.00633118093            0.000533159924           
       2.834449             0.00699070483            0.000563782505           
       2.837090             0.00644536137            0.000522854158           
       2.839730             0.00694463218            0.000540077326           
       2.842371             0.00649179029            0.000522925601           
       2.845011             0.00693001275            0.000544593825           
       2.847651             0.00630815717            0.000520223541           
       2.850292              0.0062064654            0.000521077551           
       2.852932             0.00752531836             0.00058628084           
       2.855573             0.00721145355            0.000556722823           
       2.858213             0.00729779085            0.000588115716           
       2.860853             0.00741694816            0.000551530989           
       2.863494             0.00561671876            0.000496924282           
       2.866134              0.0063307908            0.000548340803           
       2.868774             0.00687634565            0.000561646918           
       2.871415             0.00590443028            0.000528550093           
       2.874055             0.00621677738            0.000518419361           
       2.876696             0.00606288198            0.000525810319           
       2.879336             0.00729055417            0.000555725374           
       2.881976             0.00680187693            0.000553649034           
       2.884617             0.00787285472            0.000586895398           
       2.887257             0.00737754103            0.000571065961           
       2.889897             0.00738003669            0.000559407454           
       2.892538             0.00726554891            0.000608060834           
       2.895178             0.00698633234            0.000538683363           
       2.897819             0.00694852814            0.000548019751           
       2.900459             0.00739869803            0.000554492653           
       2.903099             0.00724319339            0.000543018694           
       2.905740             0.00616502745            0.000513937745           
       2.908380             0.00715175794            0.000559830016           
       2.911021             0.00697938308            0.000562033803           
       2.913661             0.00795914255            0.000600007844           
       2.916301             0.00752062509            0.000583800846           
       2.918942             0.00700431091            0.000538910441           
       2.921582             0.00694885901            0.000561619171           
       2.924222             0.00707008157            0.000548826353           
       2.926863             0.00703571005            0.000570274711           
       2.929503             0.00875564461            0.000643708497           
       2.932144             0.00645455161             0.00053054446           
       2.934784             0.00691155732            0.000540003391           
       2.937424              0.0065091387            0.000529427355           
       2.940065             0.00771706644            0.000549890346           
       2.942705             0.00743122029            0.000538933079           
       2.945346             0.00670464595            0.000543264918           
       2.947986             0.00801078859            0.000605500035           
       2.950626             0.00705990668             0.00056522827           
       2.953267             0.00677380567            0.000544711341           
       2.955907             0.00649871858            0.000553470515           
       2.958547              0.0058333894            0.000495035911           
       2.961188             0.00699913485            0.000565716641           
       2.963828             0.00739891512            0.000568959997           
       2.966469              0.0063615785             0.00051754442           
       2.969109             0.00728465123            0.000562026895           
       2.971749             0.00650070219            0.000527612515           
       2.974390             0.00745671388            0.000555292918           
       2.977030             0.00856102711            0.000608289298           
       2.979670             0.00927005758            0.000615692755           
       2.982311             0.00904582225            0.000630369331           
       2.984951             0.00716428615            0.000533553784           
       2.987592             0.00703724391            0.000539393411           
       2.990232             0.00737048138            0.000574091482           
       2.992872             0.00928375467            0.000606903792           
       2.995513             0.00847203966            0.000567201026           
       2.998153              0.0123856095            0.000697329104           
       3.000794               0.013461689            0.000704165211           
       3.003434              0.0109770988            0.000636830435           
       3.006074              0.0475309544             0.00130658658           
       3.008715               0.126340615             0.00205631589           
       3.011355               0.190359268               0.002434041           
       3.013995               0.096871109             0.00174107715           
       3.016636              0.0618922639             0.00136278344           
       3.019276               0.140915265             0.00202130668           
       3.021917               0.521204179             0.00373790557           
       3.024557                1.62876031             0.00649655242           
       3.027197                1.10670475             0.00522097261           
       3.029838               0.525757093             0.00364959856           
       3.032478               0.249916175             0.00251878482           
       3.035118              0.0693503007             0.00134463944           
       3.037759              0.0928934683             0.00155422383           
       3.040399               0.140043956             0.00196848864           
       3.043040               0.557366384             0.00397522816           
       3.045680               0.369944838             0.00304708323           
       3.048320               0.086436924             0.00150491735           
       3.050961               0.111311147             0.00173787309           
       3.053601              0.0923872177             0.00152487988           
       3.056242              0.0729665914             0.00144082679           
       3.058882              0.0677770643             0.00148960337           
       3.061522              0.0534750873             0.00129815575           
       3.064163              0.0707366837             0.00147424568           
       3.066803               0.137681648             0.00216533501           
       3.069443               0.109557212             0.00202090356           
       3.072084              0.0356508345             0.00112253498           
       3.074724              0.0476124933             0.00144873808           
       3.077365              0.0604665381             0.00169005387           
       3.080005              0.0106446276            0.000713119334           
       3.082645              0.0149439264            0.000887636298           
       3.085286              0.0148865115            0.000892919174           
       3.087926              0.0107286706            0.000752191627           
       3.090566              0.0128582717            0.000806839911           
       3.093207              0.0120025412            0.000811181341           
       3.095847              0.0082040443            0.000642806882           
       3.098488             0.00914536359            0.000752543352           
       3.101128             0.00927504344            0.000762733905           
       3.103768              0.0098913087            0.000772846952           
       3.106409             0.00914140595             0.00079072328           
       3.109049             0.00792311937            0.000706446391           
       3.111690             0.00790305194            0.000693439091           
       3.114330             0.00746668249            0.000688361733           
       3.116970             0.00689283507            0.000666458672           
       3.119611              0.0113063133             0.00090855985           
       3.122251              0.0189735471             0.00123115554           
       3.124891              0.0346281927             0.00167872738           
       3.127532              0.0229880149             0.00133808621           
       3.130172               0.012994693              0.0010234264           
       3.132813             0.00862907668              0.0008210248           
       3.135453              0.0064284769            0.000702806829           
       3.138093             0.00767224019            0.000831928729           
       3.140734             0.00714933283            0.000740901376           
       3.143374             0.00633696496            0.000737677659           
       3.146014              0.0062493643            0.000788635513           
       3.148655             0.00756338312            0.000806508809           
       3.151295             0.00682199613            0.000816251442           
       3.153936             0.00701448355            0.000799520578           
       3.156576             0.00690732349            0.000782598227           
       3.159216             0.00636777257            0.000755169728           
       3.161857             0.00503718978            0.000668919517           
       3.164497             0.00745563043            0.000855077601           
       3.167138             0.00795018559            0.000912336173           
       3.169778             0.00707871961            0.000846684891           
       3.172418             0.00683711112            0.000823646155           
       3.175059             0.00489518684            0.000617857711           
       3.177699             0.00680432628            0.000771378537           
       3.180339             0.00713015482            0.000846028924           
       3.182980             0.00590315589            0.000795894888           
       3.185620             0.00455715398            0.000712172457           
       3.188261             0.00553074313            0.000798567944           
       3.190901             0.00801904626            0.000884366511           
       3.193541             0.00527354517            0.000753572971           
       3.196182             0.00584721508            0.000826943839           
       3.198822             0.00607022232            0.000842848116           
       3.201463             0.00586087254            0.000813918036           
       3.204103             0.00478646785            0.000731066253           
       3.206743             0.00703846149             0.00088643576           
       3.209384             0.00625421911            0.000902787206           
       3.212024             0.00562691907            0.000798355312           
       3.214664             0.00570102608            0.000913802373           
       3.217305             0.00594022904            0.000886668012           
       3.219945             0.00586472593            0.000906791843           
       3.222586             0.00533475735            0.000823755805           
       3.225226             0.00689318978              0.0010387657           
       3.227866             0.00600473606             0.00088612679           
       3.230507               0.007415058             0.00102075436           
       3.233147             0.00702581723             0.00100162504           
       3.235787             0.00760335923             0.00106633663           
       3.238428             0.00607578806             0.00102864438           
       3.241068             0.00532964105            0.000900839916           
       3.243709             0.00535782349            0.000933168261           
       3.246349             0.00432470179            0.000764266697           
       3.248989             0.00770129377             0.00120425012           
       3.251630             0.00574887614             0.00100193677           
       3.254270             0.00627617591            0.000935625748           
       3.256911             0.00580702555            0.000981974938           
       3.259551             0.00694043718             0.00115575814           
       3.262191             0.00578620932             0.00107792304           
       3.264832             0.00546299039             0.00109435928           
       3.267472             0.00557583631              0.0010371757           
       3.270112             0.00702087139             0.00128619019           
       3.272753             0.00593195428             0.00108213979           
       3.275393             0.00431154187            0.000941345931           
       3.278034             0.00610002439             0.00112032279           
       3.280674             0.00556476757             0.00116114435           
       3.283314              0.0063950816              0.0011132568           
       3.285955              0.0053894928             0.00105446834           
       3.288595             0.00384433936            0.000990797937           
       3.291235             0.00374515723             0.00100530713           
       3.293876             0.00719167853             0.00141310759           
       3.296516             0.00563644154             0.00120100269           
       3.299157             0.00750949917              0.0013688486           
       3.301797             0.00575448514              0.0013668436           
       3.304437             0.00436122767             0.00103092922           
       3.307078             0.00472939146             0.00118259459           
       3.309718             0.00856375298             0.00164255765           
       3.312359             0.00343751442              0.0010409119           
       3.314999              0.0054886592             0.00129502056           
       3.317639             0.00643968597             0.00134154441           
       3.320280             0.00281373468            0.000942826652           
       3.322920             0.00523452614             0.00130760848           
       3.325560             0.00685848218             0.00149777991           
       3.328201             0.00449412884             0.00109193954           
       3.330841             0.00431642029             0.00130241859           
       3.333482             0.00703548624             0.00157171241           
       3.336122             0.00487493934             0.00130891131           
       3.338762             0.00467717587             0.00148100894           
       3.341403             0.00598718697             0.00160112823           
       3.344043             0.00430081263             0.00130286227           
       3.346683             0.00493640637             0.00142501608           
       3.349324             0.00467672885             0.00155947648           
       3.351964             0.00345234483             0.00141686958           
       3.354605             0.00150030298             0.00106820963           
       3.357245             0.00673295771             0.00204139809           
       3.359885             0.00394200189             0.00125016907           
       3.362526              0.0042823983             0.00162949149           
       3.365166             0.00380842901             0.00144938023           
       3.367807             0.00630296679              0.0023862883           
       3.370447             0.00433266305             0.00164116212           
       3.373087             0.00208792933             0.00121831385           
       3.375728             0.00266677845             0.00155393905           
       3.378368              0.0060539088             0.00347478827           
       3.381008              0.0021599687              0.0015474345           
       3.383649             0.00572834031             0.00202156361           
       3.386289             0.00601343401             0.00245140361           
       3.388930           -2.67153049e-05                         0           
       3.391570             0.00992884132             0.00352459025           
       3.394210              0.0019767298             0.00199022864           
       3.396851             0.00744060719             0.00431923967           
       3.399491             0.00234026573             0.00242302443           
       3.402131           -2.68274754e-05                         0           
       3.404772           -2.68404236e-05                         0           
       3.407412                       nan                       nan           
       3.410053           -2.69065317e-05                         0           
       3.412693                       nan                       nan           
       3.415333           -2.69579496e-05                         0           
