################################################################################
# EDF_DataBlockID                     0.Image.Psd
# EDF_BinarySize                      2105344
# EDF_HeaderSize                      2560
# ByteOrder                           LowByteFirst
# DataType                            FloatValue
# Dim_1                               512
# Dim_2                               1028
# Image                               0
# HeaderID                            EH:000000:000000:000000
# Size                                2105344
# Center_1                            304.9000
# Center_2                            588.7000
# Comment                             Xenocs_Cell_Window - 20251028_20perc_iodine_1.23mg
# DDummy                              0.6
# Date                                2025-10-28T19:54:27
# Delta                               21.910000
# Dummy                               -1.5
# ExposureTime                        360
# Gamma                               15.360000
# Intensity1                          8.51959e-10
# PSize_1                             7.5e-05
# PSize_2                             7.5e-05
# Pressure                            0.0347195
# SampleDistance                      0.115750
# SampleEnvKind                       large
# SampleEnvPN                         ElectroChemical cell
# SampleEnvSN                         1141
# Thickness                           0
# Wavelength                          1.541891e-10
# Wavelength                          1.54189e-10
# aux                                 0
# aux_dial                            0.002375
# beamx                               588.434
# beamx_dial                          588.434
# beamz                               657.808
# beamz_dial                          657.808
# det0x                               0
# det0x_dial                          6.36945
# det0xvd                             0
# det0xvd_dial                        0
# det0y                               450.002
# det0y_dial                          481.635
# det0z                               0
# det0z_dial                          1.23302
# det0zvd                             0
# det0zvd_dial                        0
# mag                                 1.818
# mag_dial                            1.818
# om                                  0.2499
# om_dial                             -0.610199
# phi                                 -0.0120535
# phi_dial                            0
# ry                                  0.599993
# ry_dial                             0.599993
# s1bot                               0.8
# s1bot_dial                          -1.66094
# s1hl                                0.8
# s1hl_dial                           -0.608437
# s1hr                                0.8
# s1hr_dial                           0.970938
# s1top                               0.8
# s1top_dial                          -0.461562
# s2bot                               0.45
# s2bot_dial                          1.36109
# s2hl                                0.45
# s2hl_dial                           -0.83375
# s2hr                                0.45
# s2hr_dial                           -0.118594
# s2top                               0.45
# s2top_dial                          1.44734
# w2theta                             32
# w2theta_dial                        32
# waxsch                              19.2605
# waxsch_dial                         -32.7355
# waxsh                               137.085
# waxsh_dial                          -43.5338
# waxsth                              26.0607
# waxsth_dial                         -19.4086
# waxsz                               67.0407
# waxsz_dial                          -23.7954
# wind                                65.9854
# wind_dial                           66.0041
# wpsi                                124
# wpsi_dial                           124
# wstod                               115
# wstod_dial                          115
# x                                   0
# x_dial                              1.00969
# z                                   0
# z_dial                              13.3172
# CountCutoff                         6807993
# DetectorModel                       Dectris EIGER2 Si 500K, S/N E-01-0554
# ThresholdSetting                    4023.88989258
# Saturation                          0
# FlatField                           Corrected
# BackgroundReductionExtra            0.02
# BackgroundCorrectionConstant        0.0026712
# Detector                            0
# Monitor                             0
# Pil_Roi0                            0
# SumForIntensity1                    3.06705e+08
# TransmittedFlux                     851959
# det                                 0
# mon                                 0
# pilai0                              3.06705e+08
# pilai1                              791759
# pilct0                              5.3115e+08
# pilct1                              791759
# pilroi0                             0
# pilroi1                             0
# sec                                 1
# title                               20251028_20perc_iodine_1.23mg_1_00050.edf
# usaxs0                              0
# Operation                           Azimuthal average I(q)
# Error_model                         ErrorModel.poisson
# Geometrical_correction              True
# Transmission_correction             True
# Thickness_correction                False
# Binning mode                        Uniform
# Binning factor                      1.0
# Psi                                 0.0
# Omega                               0.2499
# MaskInvalidPixels                   True
# DetectorEdge                        3
# MaskFiles                           ['WAXS_corrected.edf']
################################################################################
    q(A⁻¹)                Intensity(a.u.)            Sigma_I(a.u.)            
       0.693100            -2.3831197e-05                         0           
       0.695741             0.00849222353             0.00502253704           
       0.698381             0.00428666267             0.00437104172           
       0.701021           -2.37936672e-05                         0           
       0.703662              0.0113173318             0.00579547408           
       0.706302             0.00348029759             0.00248818283           
       0.708942           -2.37475047e-05                         0           
       0.711583              0.0110188676              0.0049482249           
       0.714223             0.00293983468             0.00295081731           
       0.716864             0.00633704466             0.00283462123           
       0.719504             0.00883472876             0.00361173699           
       0.722144             0.00375678207             0.00218109371           
       0.724785              0.0151989646             0.00349948979           
       0.727425             0.00444987741             0.00256160286           
       0.730065              0.0102618395             0.00275163992           
       0.732706             0.00979658168             0.00225769369           
       0.735346             0.00881919877             0.00279232789           
       0.737987             0.00699844596             0.00175772013           
       0.740627             0.00777623076             0.00276452151           
       0.743267             0.00615095357             0.00164683007           
       0.745908              0.0067760048              0.0018753103           
       0.748548             0.00656335759             0.00170123282           
       0.751189             0.00641701845             0.00226664702           
       0.753829             0.00948040294             0.00253253673           
       0.756469             0.00348777701             0.00123865414           
       0.759110             0.00830913363             0.00201476366           
       0.761750             0.00722498738             0.00166121348           
       0.764390             0.00954613455             0.00199860119           
       0.767031             0.00467713944             0.00121143938           
       0.769671             0.00635409423             0.00176137973           
       0.772312             0.00675966302             0.00138305688           
       0.774952             0.00722635533             0.00193106499           
       0.777592             0.00571670855             0.00125102921           
       0.780233             0.00393975286             0.00125300466           
       0.782873             0.00468931688             0.00130742149           
       0.785513             0.00626743809             0.00161588195           
       0.788154             0.00670837617             0.00139848295           
       0.790794             0.00950294955             0.00198992505           
       0.793435              0.0077128075             0.00161051202           
       0.796075             0.00871836569             0.00164945864           
       0.798715             0.00606363296             0.00162556031           
       0.801356             0.00546258244             0.00132791889           
       0.803996             0.00837784198             0.00167660727           
       0.806637             0.00762474992             0.00127288827           
       0.809277             0.00649118032             0.00127121982           
       0.811917             0.00741370664             0.00127003054           
       0.814558             0.00585160267             0.00117269139           
       0.817198             0.00807196813             0.00130852216           
       0.819838              0.0086650736             0.00137211244           
       0.822479             0.00782051737             0.00153070118           
       0.825119             0.00760699964             0.00128491114           
       0.827760             0.00824715951             0.00135522508           
       0.830400             0.00684795799             0.00116229128           
       0.833040             0.00713338311             0.00124284186           
       0.835681             0.00531924415             0.00122007955           
       0.838321             0.00729323668             0.00119910457           
       0.840961              0.0060489356             0.00118982304           
       0.843602             0.00686769851             0.00116261839           
       0.846242             0.00645350073             0.00112684576           
       0.848883              0.0080634221             0.00128900104           
       0.851523             0.00661898858              0.0011533493           
       0.854163             0.00682778172              0.0012457303           
       0.856804             0.00769659887              0.0011892128           
       0.859444             0.00756886326             0.00115548928           
       0.862085             0.00711327728             0.00116750163           
       0.864725             0.00966845748             0.00139298126           
       0.867365             0.00738441697             0.00112886155           
       0.870006             0.00638541346             0.00100031083           
       0.872646             0.00499302534            0.000927572998           
       0.875286             0.00796243029             0.00112691729           
       0.877927             0.00577658284            0.000926213386           
       0.880567             0.00893483564             0.00119340295           
       0.883208             0.00732933258             0.00107069358           
       0.885848             0.00756265242              0.0011292583           
       0.888488             0.00591455356            0.000936680469           
       0.891129             0.00576804557            0.000949788715           
       0.893769             0.00816057066             0.00108117668           
       0.896410             0.00545809293            0.000824396296           
       0.899050             0.00859926798             0.00113797218           
       0.901690             0.00856475737             0.00123709252           
       0.904331             0.00632383326            0.000942411472           
       0.906971             0.00841740057             0.00115668138           
       0.909611             0.00828750172             0.00104479402           
       0.912252             0.00785289971             0.00105048548           
       0.914892              0.0082231931             0.00117471016           
       0.917533             0.00705502015             0.00102931682           
       0.920173             0.00800419652             0.00101721972           
       0.922813             0.00808962002             0.00107313852           
       0.925454             0.00806950878            0.000965129742           
       0.928094              0.0089398235             0.00108449813           
       0.930734             0.00989808674             0.00122856634           
       0.933375             0.00880661425             0.00114745842           
       0.936015             0.00985678243             0.00110252435           
       0.938656             0.00696161006              0.0009939843           
       0.941296             0.00794270418            0.000962208181           
       0.943936             0.00816337375            0.000956612253           
       0.946577             0.00906113108             0.00100117865           
       0.949217             0.00795425509            0.000862610421           
       0.951858             0.00870964267            0.000944885101           
       0.954498             0.00866534782             0.00109090317           
       0.957138             0.00761766948            0.000968993243           
       0.959779             0.00778765938            0.000965827431           
       0.962419             0.00648634816            0.000875583878           
       0.965059             0.00863487448              0.0010625108           
       0.967700              0.0077977209             0.00103412561           
       0.970340              0.0068698998            0.000858933125           
       0.972981             0.00737341585            0.000810741922           
       0.975621              0.0075888777            0.000875000563           
       0.978261             0.00718452993            0.000808951947           
       0.980902              0.0081818954             0.00103286867           
       0.983542             0.00642491946            0.000810536381           
       0.986182             0.00898396936            0.000941007557           
       0.988823             0.00734043291            0.000825923497           
       0.991463             0.00698705342            0.000859702059           
       0.994104               0.007126197            0.000846962099           
       0.996744             0.00860119345            0.000949098286           
       0.999384              0.0072830228            0.000781065869           
       1.002025             0.00814836246            0.000922109718           
       1.004665             0.00697870496            0.000779870064           
       1.007306              0.0082659145            0.000844406597           
       1.009946             0.00700045668            0.000792519484           
       1.012586             0.00817069682            0.000833890463           
       1.015227             0.00746293148            0.000856179932           
       1.017867             0.00653167592            0.000769798871           
       1.020507             0.00689539782            0.000766134781           
       1.023148             0.00929434201            0.000959770263           
       1.025788             0.00908755993            0.000870189017           
       1.028429             0.00647573158            0.000769584984           
       1.031069             0.00915860996            0.000861260069           
       1.033709             0.00949402819            0.000932135525           
       1.036350             0.00811249974            0.000773879953           
       1.038990             0.00842660721            0.000803213396           
       1.041630             0.00792053758            0.000812213893           
       1.044271             0.00890125857             0.00080976839           
       1.046911             0.00693595345            0.000751882678           
       1.049552              0.0082802215            0.000863110658           
       1.052192             0.00945194319            0.000842048534           
       1.054832             0.00732798562            0.000748172479           
       1.057473             0.00795651409            0.000768519259           
       1.060113             0.00684874643            0.000695383852           
       1.062754             0.00750564478            0.000743243815           
       1.065394             0.00880307167            0.000851011844           
       1.068034             0.00831142116            0.000752371052           
       1.070675             0.00876114109            0.000805768402           
       1.073315               0.008775098            0.000817968785           
       1.075955             0.00889888482            0.000777636845           
       1.078596             0.00759393398            0.000763474699           
       1.081236             0.00850515211             0.00077369656           
       1.083877             0.00775503882            0.000732163604           
       1.086517             0.00952701699            0.000870177694           
       1.089157             0.00753905928            0.000803198806           
       1.091798             0.00866165739             0.00075478654           
       1.094438             0.00874849106            0.000756112194           
       1.097078             0.00828515056            0.000705725796           
       1.099719             0.00989667445            0.000834292516           
       1.102359             0.00833564181            0.000717061749           
       1.105000             0.00879650863            0.000823682236           
       1.107640             0.00986739834            0.000834137451           
       1.110280             0.00767686977            0.000671312833           
       1.112921               0.010296955            0.000835177869           
       1.115561             0.00980503869            0.000774574313           
       1.118202             0.00858247749            0.000725360331           
       1.120842             0.00785934092            0.000729534643           
       1.123482             0.00852690579            0.000756567358           
       1.126123             0.00852322026            0.000725518014           
       1.128763             0.00914632021            0.000756723192           
       1.131403             0.00976529679            0.000753436906           
       1.134044             0.00985242839            0.000778739516           
       1.136684             0.00938845267            0.000810485819           
       1.139325             0.00974050106            0.000760488161           
       1.141965             0.00931270604            0.000748516499           
       1.144605             0.00978647368            0.000731641938           
       1.147246             0.00966304294            0.000744035353           
       1.149886             0.00968475592            0.000742226561           
       1.152527             0.00795538069            0.000682484302           
       1.155167             0.00836842799            0.000665785284           
       1.157807             0.00889820279            0.000736089052           
       1.160448             0.00878177832            0.000714091852           
       1.163088             0.00802286996            0.000651042138           
       1.165728             0.00974605229            0.000736733043           
       1.168369             0.00872703093            0.000703595227           
       1.171009             0.00885589359            0.000687842843           
       1.173650             0.00860180533            0.000695690556           
       1.176290              0.0104303397            0.000748625815           
       1.178930             0.00875971056             0.00067239871           
       1.181571             0.00943441507            0.000711651582           
       1.184211              0.0102592028            0.000744738557           
       1.186851             0.00774906903            0.000632806613           
       1.189492             0.00897559895            0.000676466613           
       1.192132             0.00955155512            0.000690003599           
       1.194773             0.00945578521            0.000689535331           
       1.197413             0.00978450795            0.000672058235           
       1.200053             0.00966294273            0.000684839839           
       1.202694             0.00846930167            0.000609694811           
       1.205334             0.00989190576            0.000710102975           
       1.207975             0.00928046106            0.000656530472           
       1.210615             0.00858845832            0.000696739006           
       1.213255             0.00972676965            0.000663974286           
       1.215896                 0.0104747            0.000701513899           
       1.218536              0.0089111883            0.000622159751           
       1.221176             0.00974637602            0.000707403481           
       1.223817              0.0108419927            0.000700381773           
       1.226457             0.00883614585            0.000645021466           
       1.229098              0.0108341199            0.000714197607           
       1.231738              0.0084587247            0.000634170761           
       1.234378             0.00975515939            0.000639936983           
       1.237019             0.00979033795            0.000660636969           
       1.239659              0.0105156668            0.000678707614           
       1.242299              0.0111588053            0.000690271662           
       1.244940             0.00842671727            0.000583388699           
       1.247580             0.00951198456            0.000638773403           
       1.250221              0.0101626832            0.000656186655           
       1.252861             0.00925254569            0.000596064094           
       1.255501              0.0108199839            0.000699888781           
       1.258142             0.00965775003            0.000621345872           
       1.260782              0.0105907151            0.000664744575           
       1.263423              0.0105214515            0.000636652222           
       1.266063              0.0100214135            0.000636855114           
       1.268703                 0.0105248             0.00064723835           
       1.271344              0.0111441996            0.000688583159           
       1.273984             0.00966483652            0.000619323613           
       1.276624             0.00980786829            0.000612168806           
       1.279265              0.0117218055            0.000680352598           
       1.281905              0.0104739683            0.000645974866           
       1.284546             0.00981196229            0.000604338878           
       1.287186              0.0118482274            0.000651546282           
       1.289826              0.0100369702            0.000632014101           
       1.292467              0.0113141716            0.000656242299           
       1.295107              0.0106288247            0.000629737831           
       1.297747              0.0102115953            0.000590660875           
       1.300388              0.0105336602            0.000653970039           
       1.303028              0.0108027007            0.000632241657           
       1.305669              0.0115134337            0.000668250241           
       1.308309              0.0107646226            0.000639790988           
       1.310949               0.011394567            0.000657583573           
       1.313590              0.0114100304            0.000637460354           
       1.316230              0.0110145388            0.000668365267           
       1.318871                 0.0106867            0.000644766581           
       1.321511              0.0100089218            0.000612419561           
       1.324151              0.0100424117            0.000595256948           
       1.326792               0.012066233            0.000656520107           
       1.329432              0.0104039911            0.000605322154           
       1.332072             0.00941814292            0.000567346253           
       1.334713              0.0123221837            0.000669777957           
       1.337353               0.010257913            0.000586062802           
       1.339994              0.0104399252            0.000620446818           
       1.342634              0.0104384042            0.000594926191           
       1.345274               0.012034695            0.000661095946           
       1.347915             0.00981170334             0.00058044017           
       1.350555              0.0113053196            0.000633967515           
       1.353195               0.010237667            0.000606252993           
       1.355836              0.0111569616             0.00062301859           
       1.358476              0.0107236382            0.000593179652           
       1.361117              0.0103893262              0.0005846616           
       1.363757              0.0109282755             0.00061794419           
       1.366397              0.0108980706            0.000598415747           
       1.369038               0.011365466            0.000617198425           
       1.371678              0.0109528516            0.000600549825           
       1.374319               0.010534838            0.000583906799           
       1.376959              0.0111641185             0.00059504829           
       1.379599              0.0119244592            0.000659069821           
       1.382240              0.0129710804            0.000646038868           
       1.384880              0.0117663167            0.000651748398           
       1.387520              0.0116396832            0.000615645677           
       1.390161              0.0107403612            0.000561672898           
       1.392801              0.0105422987            0.000579787705           
       1.395442              0.0114055274            0.000611294315           
       1.398082              0.0120342202            0.000588016106           
       1.400722              0.0106695849            0.000579960635           
       1.403363               0.011902638            0.000644790461           
       1.406003              0.0109496486            0.000578776122           
       1.408644              0.0110898648            0.000610175309           
       1.411284              0.0107435015            0.000568687546           
       1.413924              0.0111318871            0.000576729482           
       1.416565              0.0115508309            0.000585174041           
       1.419205              0.0113177088            0.000604238568           
       1.421845               0.011320073            0.000603946841           
       1.424486              0.0111259054            0.000575531418           
       1.427126              0.0112026752            0.000599924964           
       1.429767               0.011188379            0.000564096186           
       1.432407              0.0107393078             0.00057837119           
       1.435047              0.0107608424            0.000543730874           
       1.437688              0.0110221496            0.000558520872           
       1.440328              0.0108135309            0.000564612901           
       1.442968              0.0108945989            0.000579423176           
       1.445609              0.0122701028            0.000595407223           
       1.448249                0.01084686            0.000573985816           
       1.450890              0.0107903746            0.000568752724           
       1.453530              0.0120240973            0.000628125831           
       1.456170              0.0115481767             0.00059742468           
       1.458811              0.0108249964            0.000553093721           
       1.461451               0.010125174            0.000536319841           
       1.464092              0.0111520839            0.000566540196           
       1.466732              0.0113410716             0.00056641094           
       1.469372              0.0109230805             0.00054286583           
       1.472013              0.0104474959             0.00057260382           
       1.474653              0.0112024979            0.000583786189           
       1.477293              0.0103044559            0.000571698779           
       1.479934              0.0113837995            0.000573379044           
       1.482574              0.0119897338            0.000569224788           
       1.485215              0.0106788151            0.000547211222           
       1.487855              0.0104167523            0.000547584609           
       1.490495              0.0105573926            0.000549238509           
       1.493136              0.0110166232            0.000553366537           
       1.495776              0.0107273778            0.000543567437           
       1.498416              0.0112139042             0.00057393995           
       1.501057              0.0100521693            0.000531422188           
       1.503697              0.0112566338            0.000549796135           
       1.506338              0.0106721769            0.000545115289           
       1.508978              0.0113988226            0.000557827258           
       1.511618              0.0108880748            0.000580621215           
       1.514259              0.0108508783            0.000559604252           
       1.516899              0.0103274284            0.000531564267           
       1.519540             0.00997699602            0.000530893046           
       1.522180              0.0107451964            0.000555792538           
       1.524820              0.0115676639            0.000573435938           
       1.527461              0.0109634713            0.000561020466           
       1.530101              0.0103264685            0.000539032932           
       1.532741             0.00930843435            0.000508803383           
       1.535382              0.0100507666            0.000537213838           
       1.538022              0.0103322857            0.000513122561           
       1.540663              0.0112788787            0.000576622015           
       1.543303             0.00964888762            0.000495206595           
       1.545943              0.0107097243            0.000552201404           
       1.548584              0.0115040848             0.00058258743           
       1.551224              0.0110513482            0.000527951481           
       1.553864             0.00996464073            0.000529740907           
       1.556505              0.0103968569            0.000522724057           
       1.559145              0.0100949548            0.000521388426           
       1.561786              0.0102272943            0.000525199038           
       1.564426               0.010281115            0.000510200358           
       1.567066              0.0105210301            0.000540793533           
       1.569707              0.0109595246            0.000542033345           
       1.572347              0.0096702789            0.000526007574           
       1.574988              0.0106313934            0.000524962216           
       1.577628             0.00994842394            0.000529531403           
       1.580268             0.00871416859            0.000480179482           
       1.582909              0.0101038586            0.000548054592           
       1.585549             0.00963931113            0.000519766309           
       1.588189             0.00905525753            0.000492778691           
       1.590830              0.0103095448            0.000525140887           
       1.593470             0.00927133747            0.000517716294           
       1.596111              0.0104518251            0.000536666808           
       1.598751             0.00933917931            0.000491554617           
       1.601391             0.00923566479            0.000499607635           
       1.604032             0.00925945134            0.000510708415           
       1.606672             0.00863692054            0.000479231207           
       1.609312             0.00893558463            0.000508837325           
       1.611953              0.0103765497            0.000536577498           
       1.614593             0.00969936957            0.000508875649           
       1.617234              0.0095252188            0.000522630863           
       1.619874              0.0100701597            0.000535250129           
       1.622514              0.0100097705            0.000526363135           
       1.625155              0.0101618868            0.000533480595           
       1.627795              0.0087542342            0.000483022104           
       1.630436             0.00943652063            0.000498873217           
       1.633076              0.0102795879            0.000527510382           
       1.635716             0.00941709062            0.000497039794           
       1.638357             0.00949322024            0.000500360239           
       1.640997             0.00944690636             0.00051425812           
       1.643637             0.00916537372            0.000492917898           
       1.646278             0.00968383181            0.000522587128           
       1.648918             0.00915961252            0.000509632077           
       1.651559             0.00947213377             0.00052227576           
       1.654199              0.0080707218            0.000468879215           
       1.656839             0.00951413179            0.000509261618           
       1.659480             0.00884375673            0.000509430069           
       1.662120             0.00887302209            0.000480592412           
       1.664761             0.00901224113            0.000503112575           
       1.667401              0.0086936848            0.000472292804           
       1.670041             0.00980942193            0.000509334534           
       1.672682             0.00873526346            0.000478663946           
       1.675322             0.00824407095            0.000462021124           
       1.677962             0.00967684118            0.000495040046           
       1.680603             0.00853817947            0.000466434371           
       1.683243             0.00943018509            0.000511426047           
       1.685884             0.00930766591            0.000511844985           
       1.688524             0.00932077984            0.000502304436           
       1.691164             0.00872048412            0.000485970323           
       1.693805             0.00778476234            0.000464202005           
       1.696445               0.008982874            0.000501538096           
       1.699085             0.00874335851            0.000478226488           
       1.701726              0.0084234385            0.000452180901           
       1.704366             0.00879114597            0.000486646377           
       1.707007             0.00872571184            0.000474024468           
       1.709647             0.00852361655            0.000473793738           
       1.712287             0.00902784299            0.000491850607           
       1.714928             0.00820995543            0.000472823563           
       1.717568             0.00845246627            0.000451932077           
       1.720209             0.00881932214            0.000483530998           
       1.722849             0.00863327656            0.000475944194           
       1.725489             0.00914471214            0.000490250162           
       1.728130              0.0085976561            0.000505174619           
       1.730770             0.00904227131            0.000492029317           
       1.733410             0.00823797974            0.000462255047           
       1.736051             0.00962649298            0.000503173507           
       1.738691             0.00866122403            0.000467605043           
       1.741332             0.00777846882             0.00045609314           
       1.743972             0.00838150139            0.000488909952           
       1.746612             0.00772371699            0.000450679382           
       1.749253             0.00881238993            0.000490901539           
       1.751893             0.00851057094            0.000478880698           
       1.754533             0.00868568067            0.000483330437           
       1.757174             0.00816336909            0.000464184703           
       1.759814             0.00915928134            0.000484231839           
       1.762455             0.00841311172            0.000472610324           
       1.765095             0.00925282032            0.000474135108           
       1.767735             0.00927123383            0.000489248256           
       1.770376             0.00866377696            0.000474195647           
       1.773016             0.00792717102             0.00045055129           
       1.775657             0.00828181243            0.000453893038           
       1.778297             0.00957958617            0.000483958757           
       1.780937              0.0086887593            0.000486487796           
       1.783578             0.00825580235            0.000462354873           
       1.786218             0.00944396925             0.00051607291           
       1.788858             0.00796667912            0.000450179514           
       1.791499             0.00873773677            0.000466166884           
       1.794139             0.00900045564            0.000469284602           
       1.796780             0.00922856911            0.000472903453           
       1.799420             0.00883627969            0.000460180623           
       1.802060             0.00917788174            0.000472779529           
       1.804701              0.0098075101            0.000469005192           
       1.807341               0.010085592            0.000499760347           
       1.809981             0.00913137773            0.000477116897           
       1.812622             0.00972901651            0.000483616564           
       1.815262             0.00935287291            0.000484248195           
       1.817903              0.0091307123            0.000471373093           
       1.820543             0.00930839121             0.00048335351           
       1.823183             0.00804764027            0.000449182701           
       1.825824              0.0093075313            0.000461501185           
       1.828464             0.00827406855            0.000453637761           
       1.831105             0.00965376613            0.000476454684           
       1.833745             0.00814478545            0.000446982576           
       1.836385             0.00868398444            0.000474712664           
       1.839026             0.00891621128             0.00047949841           
       1.841666             0.00924049556            0.000486409348           
       1.844306             0.00864433421            0.000457620479           
       1.846947             0.00854428171             0.00045895254           
       1.849587              0.0082409083            0.000497716417           
       1.852228             0.00899887264            0.000470301045           
       1.854868              0.0091599036             0.00050122883           
       1.857508             0.00849266561            0.000477894534           
       1.860149             0.00864255225            0.000490852203           
       1.862789              0.0081238231            0.000459347489           
       1.865429             0.00774456165            0.000468162243           
       1.868070             0.00853758712            0.000484996088           
       1.870710              0.0077209096            0.000450583407           
       1.873351             0.00834815222             0.00047432072           
       1.875991             0.00873601741            0.000493133179           
       1.878631             0.00831035191             0.00047175749           
       1.881272             0.00912471543            0.000491019877           
       1.883912             0.00775261641            0.000471023883           
       1.886553             0.00915858945            0.000506232836           
       1.889193              0.0076577326            0.000462107925           
       1.891833             0.00859334929            0.000508390422           
       1.894474             0.00842147575            0.000498897577           
       1.897114             0.00854749743            0.000486371542           
       1.899754              0.0077870602            0.000466174769           
       1.902395             0.00863361017            0.000481263734           
       1.905035             0.00862219331            0.000509401812           
       1.907676             0.00820536964            0.000468363883           
       1.910316             0.00808091874            0.000477139666           
       1.912956             0.00694902536            0.000432728901           
       1.915597             0.00775332474            0.000459640613           
       1.918237             0.00711747493            0.000454815644           
       1.920878             0.00797547218            0.000479478487           
       1.923518             0.00776295762            0.000473247972           
       1.926158             0.00687783364            0.000439671676           
       1.928799             0.00790262046             0.00046583468           
       1.931439             0.00777987773            0.000474325982           
       1.934079             0.00863715323            0.000521004717           
       1.936720              0.0086874088            0.000484128347           
       1.939360             0.00935895835            0.000536088879           
       1.942001             0.00780815131            0.000448801086           
       1.944641             0.00770776284            0.000454690022           
       1.947281             0.00768183978            0.000449740712           
       1.949922             0.00949476744            0.000516457844           
       1.952562             0.00825195556            0.000496564172           
       1.955202             0.00726721837            0.000465426743           
       1.957843               0.007998881            0.000475631633           
       1.960483              0.0079355431            0.000495299535           
       1.963124             0.00756010474            0.000473523024           
       1.965764             0.00795594371            0.000458086654           
       1.968404             0.00771041174             0.00044670178           
       1.971045             0.00855077482            0.000479613348           
       1.973685             0.00796741929            0.000485614833           
       1.976326             0.00721757859            0.000455846522           
       1.978966             0.00773146867            0.000475936006           
       1.981606             0.00768363956            0.000484356784           
       1.984247             0.00798867374            0.000490630492           
       1.986887             0.00734565242            0.000464834793           
       1.989527             0.00797870968            0.000479233668           
       1.992168             0.00845075052            0.000511743353           
       1.994808             0.00798471843            0.000495300463           
       1.997449             0.00789432915            0.000482374998           
       2.000089             0.00759966837            0.000471410486           
       2.002729             0.00876893944            0.000506682316           
       2.005370             0.00804048587             0.00047996013           
       2.008010             0.00836811216            0.000511010553           
       2.010650             0.00794902136            0.000501766378           
       2.013291             0.00684927036            0.000446875768           
       2.015931             0.00771710658            0.000470989273           
       2.018572             0.00740151979              0.0004933594           
       2.021212              0.0072302857            0.000478858155           
       2.023852             0.00712235943            0.000449821392           
       2.026493             0.00774255165             0.00048995098           
       2.029133             0.00784019644            0.000483109027           
       2.031774             0.00806271842            0.000514156906           
       2.034414             0.00732153836            0.000450826564           
       2.037054             0.00751585483            0.000468347562           
       2.039695             0.00845890798            0.000493109917           
       2.042335             0.00733737503             0.00047727012           
       2.044975             0.00758183462            0.000479271982           
       2.047616             0.00765447707            0.000480366258           
       2.050256             0.00743126847            0.000477789777           
       2.052897             0.00769821248            0.000495260724           
       2.055537             0.00773421265            0.000479768544           
       2.058177             0.00701437421            0.000447425237           
       2.060818              0.0073522945            0.000479870001           
       2.063458             0.00778422514            0.000514551639           
       2.066098             0.00722770557            0.000467721614           
       2.068739             0.00799916114            0.000499698649           
       2.071379             0.00745797023            0.000495082566           
       2.074020             0.00742189669            0.000483150311           
       2.076660             0.00773065751            0.000497083937           
       2.079300             0.00783984473            0.000512847281           
       2.081941             0.00751088774            0.000459613047           
       2.084581             0.00698450643            0.000467817892           
       2.087222             0.00747437889            0.000466719252           
       2.089862             0.00672850976            0.000482298966           
       2.092502             0.00791846033            0.000507178832           
       2.095143             0.00828294936            0.000535656298           
       2.097783             0.00746694487            0.000492397741           
       2.100423             0.00772250625             0.00048252178           
       2.103064             0.00802219447             0.00051030372           
       2.105704             0.00787800911            0.000503192156           
       2.108345             0.00750746966             0.00047192713           
       2.110985             0.00750899479            0.000504103521           
       2.113625              0.0071580346            0.000496477002           
       2.116266              0.0074442332            0.000513488283           
       2.118906             0.00788161201            0.000492399818           
       2.121546             0.00795587698            0.000485268596           
       2.124187             0.00707258528            0.000480273686           
       2.126827             0.00740110448            0.000496784645           
       2.129468             0.00750300583            0.000501470578           
       2.132108             0.00892238852            0.000532043637           
       2.134748             0.00807994505            0.000504339108           
       2.137389             0.00733082998            0.000501167316           
       2.140029             0.00819376725            0.000474348641           
       2.142670             0.00649202906             0.00045124317           
       2.145310             0.00749087809             0.00047178214           
       2.147950             0.00666662835            0.000458098245           
       2.150591             0.00806925022            0.000498896849           
       2.153231             0.00792300016            0.000508861697           
       2.155871             0.00707816041            0.000464645948           
       2.158512             0.00770565808            0.000505859326           
       2.161152             0.00860668626            0.000517863519           
       2.163793             0.00769078496             0.00048732995           
       2.166433             0.00791873994            0.000507798836           
       2.169073             0.00776600385            0.000491682029           
       2.171714             0.00718105764            0.000469268051           
       2.174354             0.00665464053            0.000472027152           
       2.176995             0.00726915313            0.000491264438           
       2.179635             0.00809880488            0.000547951138           
       2.182275              0.0075571334            0.000499752412           
       2.184916             0.00739976404            0.000477643663           
       2.187556             0.00739933531            0.000472842614           
       2.190196             0.00679466266            0.000473494454           
       2.192837             0.00790467121            0.000507929554           
       2.195477             0.00696277382            0.000454484753           
       2.198118             0.00698753802            0.000466958457           
       2.200758             0.00720216744            0.000486372966           
       2.203398             0.00736266982            0.000494908563           
       2.206039             0.00780333908            0.000482202343           
       2.208679             0.00802592209            0.000500412292           
       2.211319              0.0068075695            0.000463525347           
       2.213960             0.00752798878            0.000493966062           
       2.216600             0.00710837463            0.000496551064           
       2.219241             0.00784007319            0.000498395305           
       2.221881             0.00762581412             0.00049254851           
       2.224521             0.00762072834             0.00049841784           
       2.227162             0.00758456859            0.000487278173           
       2.229802             0.00695963083            0.000481383621           
       2.232443             0.00778330969            0.000501043785           
       2.235083             0.00745668908            0.000504884153           
       2.237723              0.0070513283            0.000471156165           
       2.240364             0.00717781634            0.000487074153           
       2.243004              0.0065730233            0.000462381904           
       2.245644             0.00754870586             0.00050047216           
       2.248285             0.00749609497            0.000488734145           
       2.250925             0.00691400999            0.000472226471           
       2.253566             0.00787704301            0.000538859742           
       2.256206              0.0070910389            0.000501045683           
       2.258846             0.00692955504            0.000471174617           
       2.261487             0.00714324922            0.000502108925           
       2.264127             0.00682372931            0.000473959267           
       2.266767             0.00738612768            0.000506241646           
       2.269408             0.00729318439            0.000505106405           
       2.272048             0.00570692825            0.000444145595           
       2.274689             0.00728046355            0.000508263243           
       2.277329             0.00775766553            0.000493997514           
       2.279969             0.00760572588            0.000520657194           
       2.282610             0.00784276761             0.00051400358           
       2.285250             0.00716892603            0.000470361884           
       2.287891             0.00741598546            0.000512915067           
       2.290531             0.00611428713            0.000471990362           
       2.293171             0.00816377175            0.000531257308           
       2.295812             0.00678670657            0.000482436093           
       2.298452              0.0077658087            0.000539665845           
       2.301092             0.00765884877            0.000497950862           
       2.303733             0.00682754145            0.000489120772           
       2.306373             0.00745868619            0.000519279638           
       2.309014              0.0074022762            0.000507220662           
       2.311654             0.00700744187             0.00051499884           
       2.314294             0.00709635584            0.000477471003           
       2.316935             0.00790535801            0.000506035096           
       2.319575             0.00678780849            0.000491303677           
       2.322215             0.00771968848            0.000546038401           
       2.324856             0.00777720442            0.000503892394           
       2.327496             0.00730091289            0.000519130048           
       2.330137             0.00638681284            0.000464630448           
       2.332777             0.00667334196            0.000489712099           
       2.335417             0.00690036674            0.000483107638           
       2.338058              0.0080357574            0.000536913786           
       2.340698             0.00770210023              0.0005215181           
       2.343339              0.0064189231            0.000486574457           
       2.345979              0.0070692426            0.000483094744           
       2.348619             0.00703061975            0.000499383777           
       2.351260             0.00742539263            0.000510222529           
       2.353900             0.00645389712            0.000474168829           
       2.356540             0.00744030073             0.00050839386           
       2.359181             0.00767007278            0.000508947659           
       2.361821             0.00654936647            0.000454295222           
       2.364462             0.00708754819            0.000494272294           
       2.367102             0.00746033564             0.00052113096           
       2.369742             0.00710776261            0.000535407871           
       2.372383              0.0074675636            0.000496929789           
       2.375023             0.00699167705            0.000505461981           
       2.377663             0.00778279117            0.000509905968           
       2.380304             0.00748823152            0.000508503176           
       2.382944             0.00680231528             0.00046161825           
       2.385585             0.00684767432            0.000493962543           
       2.388225              0.0057495401            0.000450498639           
       2.390865              0.0075459314            0.000510797909           
       2.393506             0.00688320401            0.000478648008           
       2.396146             0.00653256339            0.000504181507           
       2.398787             0.00697953761            0.000480275389           
       2.401427             0.00766806704            0.000485904603           
       2.404067             0.00682106745            0.000468505802           
       2.406708             0.00659516246            0.000455157994           
       2.409348             0.00732000947            0.000508623034           
       2.411988             0.00722123164            0.000494964295           
       2.414629             0.00671498656            0.000492164245           
       2.417269             0.00701958941            0.000509078171           
       2.419910             0.00865969759            0.000566743536           
       2.422550              0.0066265163            0.000474319551           
       2.425190             0.00649106712            0.000494846015           
       2.427831             0.00648393476            0.000491793899           
       2.430471             0.00687665653            0.000482509129           
       2.433112             0.00761340786            0.000494377931           
       2.435752             0.00586175417            0.000459089261           
       2.438392             0.00782537313            0.000511982515           
       2.441033             0.00683980275             0.00050728018           
       2.443673             0.00783268443            0.000543269306           
       2.446313             0.00833700674            0.000560980385           
       2.448954             0.00641942189            0.000468696027           
       2.451594               0.007348215            0.000539184125           
       2.454235             0.00714032394            0.000498684834           
       2.456875              0.0084075009            0.000566214695           
       2.459515             0.00785249291            0.000561372486           
       2.462156             0.00873329737            0.000558949449           
       2.464796             0.00802713365            0.000528961521           
       2.467436             0.00793416691            0.000543831508           
       2.470077             0.00745721177            0.000499720443           
       2.472717             0.00749107503            0.000503023367           
       2.475358             0.00806875158            0.000527502144           
       2.477998             0.00733301571            0.000494399886           
       2.480638             0.00720326709            0.000498713429           
       2.483279             0.00720027506             0.00052112677           
       2.485919             0.00679170836            0.000487767789           
       2.488560             0.00707135363            0.000496317624           
       2.491200             0.00672093555            0.000498252014           
       2.493840             0.00677736338            0.000529424461           
       2.496481             0.00805209386            0.000567629785           
       2.499121             0.00665768491            0.000502034203           
       2.501761             0.00668391381            0.000509686942           
       2.504402             0.00666876326            0.000501670903           
       2.507042             0.00755542766            0.000530025289           
       2.509683             0.00724577134            0.000511117314           
       2.512323             0.00707400949            0.000530399546           
       2.514963             0.00759017251            0.000542621817           
       2.517604             0.00776379328            0.000569456934           
       2.520244             0.00719178681            0.000513824052           
       2.522884             0.00750840235            0.000532520862           
       2.525525             0.00760935805             0.00054217368           
       2.528165             0.00664991659            0.000498941416           
       2.530806             0.00708658652            0.000524040248           
       2.533446              0.0136922025            0.000712873824           
       2.536086             0.00648061073            0.000486048244           
       2.538727             0.00640915379            0.000463711568           
       2.541367             0.00762263817            0.000510689949           
       2.544008             0.00691901881            0.000502486728           
       2.546648             0.00729006217            0.000524631191           
       2.549288             0.00695752019            0.000522968937           
       2.551929             0.00798780783            0.000551421847           
       2.554569             0.00762547857            0.000519060174           
       2.557209             0.00686780087             0.00049712232           
       2.559850             0.00722837488            0.000511643105           
       2.562490             0.00660171146            0.000505368426           
       2.565131             0.00711066385            0.000543811966           
       2.567771             0.00661881371             0.00050585778           
       2.570411             0.00650515152            0.000496069412           
       2.573052             0.00772184133            0.000547279724           
       2.575692             0.00623874579            0.000488944655           
       2.578332              0.0066079302            0.000505284525           
       2.580973             0.00713349279            0.000519998911           
       2.583613             0.00754648605             0.00052210475           
       2.586254             0.00760222357            0.000523301031           
       2.588894             0.00684345915            0.000515591383           
       2.591534             0.00771122147            0.000566563354           
       2.594175             0.00732713899            0.000541851676           
       2.596815             0.00586763702            0.000487750826           
       2.599456             0.00627208929            0.000478207225           
       2.602096             0.00599896811            0.000471238648           
       2.604736             0.00662564344            0.000506984321           
       2.607377             0.00727556987            0.000517267768           
       2.610017             0.00670733217            0.000487965968           
       2.612657             0.00764091854            0.000553970295           
       2.615298             0.00597098875            0.000478108646           
       2.617938             0.00656452694             0.00053627213           
       2.620579              0.0068581009            0.000526201519           
       2.623219             0.00647641293            0.000510620104           
       2.625859             0.00700550373            0.000516347289           
       2.628500             0.00706241712            0.000515042301           
       2.631140             0.00758899911            0.000542124677           
       2.633780             0.00626668692            0.000492207492           
       2.636421             0.00709174117            0.000536483763           
       2.639061              0.0067168792            0.000491508706           
       2.641702             0.00673071963             0.00050340528           
       2.644342             0.00694945571            0.000513699327           
       2.646982             0.00670787207            0.000497146475           
       2.649623             0.00796614117            0.000567754546           
       2.652263             0.00856064606            0.000582652681           
       2.654904             0.00723345099            0.000536124859           
       2.657544             0.00739379727            0.000510540291           
       2.660184             0.00715043682            0.000531334144           
       2.662825             0.00585974133            0.000492154117           
       2.665465             0.00711260185            0.000524416793           
       2.668105             0.00824734226             0.00059521759           
       2.670746             0.00740048866            0.000520859602           
       2.673386             0.00963583342            0.000612515239           
       2.676027             0.00776225199             0.00054092801           
       2.678667             0.00891953363            0.000565789966           
       2.681307              0.0104750316            0.000602447958           
       2.683948             0.00905509817            0.000575507102           
       2.686588             0.00853443317            0.000549450907           
       2.689229              0.0101776225            0.000586313377           
       2.691869             0.00912291184            0.000586688402           
       2.694509             0.00797108162            0.000548703797           
       2.697150             0.00855737388             0.00055930128           
       2.699790             0.00750665238            0.000549171055           
       2.702430             0.00660388107            0.000492365243           
       2.705071             0.00668260916            0.000511790198           
       2.707711             0.00705946434            0.000510544829           
       2.710352             0.00695743913            0.000535542156           
       2.712992             0.00683296101            0.000540542948           
       2.715632             0.00702819044            0.000508630751           
       2.718273             0.00655051648            0.000508898929           
       2.720913             0.00643870407            0.000503101401           
       2.723553             0.00809516543            0.000567901911           
       2.726194             0.00634392907            0.000525524396           
       2.728834             0.00832694068            0.000602365608           
       2.731475             0.00674857307            0.000500476685           
       2.734115             0.00784009096            0.000556175704           
       2.736755             0.00786471966            0.000561633555           
       2.739396             0.00847078333            0.000579494952           
       2.742036             0.00698540333            0.000550743266           
       2.744677             0.00727320493            0.000545269874           
       2.747317             0.00837742137            0.000581026363           
       2.749957             0.00684016061            0.000528702017           
       2.752598             0.00670122529            0.000528984248           
       2.755238             0.00678407401            0.000541852386           
       2.757878             0.00730024055            0.000557173494           
       2.760519             0.00759583866            0.000562315709           
       2.763159             0.00782158474            0.000564908211           
       2.765800             0.00749268518            0.000526908306           
       2.768440             0.00789109047            0.000544718951           
       2.771080             0.00725049816            0.000526499486           
       2.773721             0.00747431709            0.000548353827           
       2.776361             0.00627182257            0.000509240072           
       2.779001             0.00682136324            0.000549988835           
       2.781642             0.00636007172            0.000527153268           
       2.784282             0.00716197742            0.000568598621           
       2.786923             0.00702872718            0.000568243931           
       2.789563             0.00705635971            0.000548360384           
       2.792203             0.00651869723            0.000503488243           
       2.794844              0.0078365587            0.000605028324           
       2.797484             0.00722259789            0.000548175303           
       2.800125             0.00638675383             0.00054202867           
       2.802765             0.00705443545            0.000559856797           
       2.805405             0.00684701746            0.000553431631           
       2.808046             0.00646985678            0.000547430451           
       2.810686             0.00675726433             0.00051407635           
       2.813326             0.00780137439            0.000573756876           
       2.815967             0.00704106089            0.000560579676           
       2.818607             0.00723548874             0.00054228225           
       2.821248             0.00743390089             0.00053825561           
       2.823888             0.00636805753             0.00051712035           
       2.826528             0.00688231047            0.000520634253           
       2.829169             0.00695991939            0.000548401337           
       2.831809             0.00644297486            0.000534819402           
       2.834449             0.00759670741            0.000584403237           
       2.837090             0.00615580327            0.000508098715           
       2.839730             0.00652679111            0.000520630945           
       2.842371              0.0067384308            0.000529768157           
       2.845011             0.00774309719            0.000572416114           
       2.847651             0.00662107182            0.000529970502           
       2.850292             0.00696048039            0.000548717235           
       2.852932             0.00814245215             0.00060641463           
       2.855573             0.00637068134            0.000520318614           
       2.858213             0.00759054364            0.000596420167           
       2.860853             0.00610780795            0.000497678391           
       2.863494             0.00791328062            0.000586510732           
       2.866134             0.00692334924            0.000570201694           
       2.868774              0.0072491057            0.000573423579           
       2.871415             0.00662916761            0.000556897739           
       2.874055             0.00683905505            0.000540686349           
       2.876696             0.00636514194            0.000535725593           
       2.879336             0.00701881468            0.000542201412           
       2.881976             0.00730423732            0.000570500987           
       2.884617             0.00789598615            0.000584448939           
       2.887257             0.00760333864            0.000576476256           
       2.889897             0.00724872644            0.000551288133           
       2.892538             0.00734619768             0.00060798508           
       2.895178             0.00677179594            0.000527363022           
       2.897819             0.00742528655            0.000563320051           
       2.900459             0.00640433763            0.000512984278           
       2.903099             0.00699449807            0.000530611695           
       2.905740             0.00614408098            0.000510176293           
       2.908380             0.00723406749            0.000559873427           
       2.911021             0.00560004929            0.000500608989           
       2.913661             0.00688463579            0.000554897889           
       2.916301             0.00626507703             0.00052984612           
       2.918942             0.00729296186            0.000546807751           
       2.921582              0.0075458078             0.00058195157           
       2.924222             0.00721005678            0.000551113294           
       2.926863             0.00741398972            0.000582109834           
       2.929503              0.0083008125            0.000623238512           
       2.932144             0.00771112193            0.000576628801           
       2.934784             0.00638002092            0.000515903391           
       2.937424             0.00613187538            0.000510963731           
       2.940065             0.00757648199            0.000541791982           
       2.942705             0.00758840156            0.000541537737           
       2.945346             0.00802169673            0.000590888662           
       2.947986             0.00697592109            0.000561857416           
       2.950626             0.00662495923            0.000544458523           
       2.953267             0.00701918128            0.000551368665           
       2.955907             0.00680494723            0.000563172975           
       2.958547             0.00805718308            0.000578517682           
       2.961188             0.00651231339             0.00054261678           
       2.963828             0.00679715752            0.000542263257           
       2.966469             0.00700039447            0.000539852655           
       2.969109              0.0063894856              0.0005234009           
       2.971749             0.00616783237            0.000511034281           
       2.974390             0.00737348614            0.000549077477           
       2.977030             0.00796331907            0.000583368667           
       2.979670             0.00731944315            0.000544014717           
       2.982311             0.00894418121            0.000623289981           
       2.984951              0.0087701082            0.000587006646           
       2.987592             0.00736825965            0.000548827161           
       2.990232             0.00658575517            0.000539615937           
       2.992872              0.0098028044             0.00062012893           
       2.995513             0.00904697985            0.000582832324           
       2.998153               0.011855834            0.000678412678           
       3.000794              0.0116186772            0.000650506936           
       3.003434             0.00880615307            0.000567181347           
       3.006074              0.0155208417            0.000742431451           
       3.008715              0.0533883476             0.00132920014           
       3.011355               0.266111328             0.00286168191           
       3.013995               0.263933162             0.00285770017           
       3.016636               0.164538049             0.00220948284           
       3.019276                0.14421581             0.00203333261           
       3.021917               0.610967846             0.00402422596           
       3.024557                1.10640663              0.0053242758           
       3.027197                1.07013502             0.00510509252           
       3.029838               0.784691198             0.00443354088           
       3.032478               0.253643616              0.0025232173           
       3.035118              0.0714763397             0.00135741181           
       3.037759              0.0669987512             0.00131251153           
       3.040399              0.0854208669             0.00152873256           
       3.043040               0.261537652             0.00270774389           
       3.045680               0.294801588             0.00270476501           
       3.048320               0.147162187             0.00195258484           
       3.050961               0.210573997             0.00237683975           
       3.053601               0.144546526             0.00189662871           
       3.056242               0.180971114             0.00225633291           
       3.058882               0.320657661             0.00322180224           
       3.061522               0.297424347             0.00304430462           
       3.064163               0.274100007             0.00288569774           
       3.066803               0.151039138             0.00225517693           
       3.069443               0.104430182             0.00196194542           
       3.072084               0.064360524              0.0014997664           
       3.074724              0.0191841403            0.000914427722           
       3.077365              0.0134038469            0.000791236889           
       3.080005              0.0112308746            0.000728370864           
       3.082645              0.0249207414             0.00113980871           
       3.085286              0.0196304403             0.00101959924           
       3.087926              0.0100140944            0.000722620337           
       3.090566             0.00890704885            0.000667746763           
       3.093207              0.0107179982            0.000762231671           
       3.095847             0.00770616275            0.000619490153           
       3.098488              0.0081358195            0.000705798105           
       3.101128             0.00974199337            0.000777298432           
       3.103768             0.00870563695            0.000720967515           
       3.106409             0.00985049712            0.000816198707           
       3.109049             0.00808044708            0.000709410492           
       3.111690             0.00829207981            0.000706303632           
       3.114330              0.0076986688            0.000695039514           
       3.116970             0.00693699084            0.000664826988           
       3.119611              0.0102738777            0.000861209934           
       3.122251              0.0165273322             0.00114258584           
       3.124891               0.033025374             0.00163018891           
       3.127532              0.0262794508             0.00142262456           
       3.130172              0.0179130903             0.00119483425           
       3.132813             0.00869727617            0.000819623766           
       3.135453             0.00750262811            0.000754983463           
       3.138093             0.00639776038             0.00075541884           
       3.140734               0.005927842            0.000670848965           
       3.143374             0.00908533101            0.000878304597           
       3.146014             0.00865624258            0.000922936706           
       3.148655             0.00721380095            0.000783216707           
       3.151295             0.00665687074            0.000801774223           
       3.153936              0.0064734543            0.000763745455           
       3.156576             0.00799004631            0.000836965218           
       3.159216             0.00645856067            0.000756253631           
       3.161857             0.00593637275            0.000722086279           
       3.164497             0.00572023302            0.000744764564           
       3.167138             0.00599247342             0.00078762251           
       3.169778             0.00618651353            0.000787075218           
       3.172418             0.00676949622             0.00081495069           
       3.175059             0.00739739239            0.000755252138           
       3.177699             0.00715559809            0.000786586984           
       3.180339             0.00485224531            0.000693994304           
       3.182980             0.00582230546            0.000785977081           
       3.185620             0.00540148475            0.000770981042           
       3.188261             0.00535627466            0.000781448476           
       3.190901             0.00741218451            0.000845459562           
       3.193541             0.00520211779            0.000744239762           
       3.196182             0.00520643225            0.000775926157           
       3.198822              0.0054123124            0.000791383972           
       3.201463             0.00548369609            0.000782861659           
       3.204103             0.00440500558            0.000697382742           
       3.206743              0.0058524532            0.000803759601           
       3.209384             0.00550950622            0.000842566114           
       3.212024             0.00604136057            0.000822577951           
       3.214664             0.00579611514            0.000916205871           
       3.217305              0.0044318062            0.000761550358           
       3.219945             0.00625213851            0.000930993909           
       3.222586             0.00592042757            0.000862911963           
       3.225226             0.00729949544              0.0010629252           
       3.227866             0.00516051133             0.00081685331           
       3.230507             0.00500622797            0.000834003895           
       3.233147             0.00820193443             0.00107612742           
       3.235787             0.00410789825            0.000779381717           
       3.238428             0.00602340728             0.00101843629           
       3.241068             0.00540177889            0.000901811654           
       3.243709             0.00481190339            0.000879372759           
       3.246349             0.00560979644            0.000865544107           
       3.248989             0.00710536703              0.0011502094           
       3.251630             0.00586784374             0.00100655361           
       3.254270              0.0061994096            0.000924652562           
       3.256911             0.00394011444            0.000804316085           
       3.259551             0.00398878173            0.000871249385           
       3.262191             0.00553079166             0.00104793208           
       3.264832             0.00538816735             0.00108072213           
       3.267472             0.00322422078            0.000784257196           
       3.270112             0.00652565263             0.00123302097           
       3.272753             0.00605327539             0.00108699735           
       3.275393             0.00446036288            0.000952065532           
       3.278034             0.00630014419             0.00113214338           
       3.280674              0.0071681474             0.00131043343           
       3.283314             0.00592023672             0.00106510065           
       3.285955             0.00529853698             0.00103964815           
       3.288595              0.0040445647             0.00101055261           
       3.291235             0.00448795889             0.00109430144           
       3.293876             0.00520599891             0.00119553125           
       3.296516             0.00683512339             0.00131511417           
       3.299157             0.00591639008             0.00120816745           
       3.301797              0.0063914106             0.00143239483           
       3.304437             0.00433948145             0.00102256797           
       3.307078              0.0061179301              0.0013374708           
       3.309718             0.00497935897             0.00124544362           
       3.312359             0.00469454882             0.00120958791           
       3.314999             0.00329582474            0.000997870968           
       3.317639             0.00583650275             0.00126998285           
       3.320280             0.00468424035             0.00120964703           
       3.322920             0.00516117186             0.00129110631           
       3.325560             0.00680465543             0.00148349424           
       3.328201             0.00679769295             0.00133538166           
       3.330841             0.00503569712             0.00139883768           
       3.333482             0.00381909826             0.00115147693           
       3.336122              0.0075935835             0.00162441803           
       3.338762             0.00510791582             0.00153899247           
       3.341403               0.008025784             0.00184334761           
       3.344043             0.00696746328             0.00164895723           
       3.346683             0.00406633002             0.00128606946           
       3.349324             0.00565997596             0.00170594029           
       3.351964             0.00512622254             0.00171680243           
       3.354605             0.00527988947             0.00199263713           
       3.357245             0.00733163895             0.00211823479           
       3.359885             0.00155844142            0.000781635681           
       3.362526             0.00548827407             0.00183432068           
       3.365166             0.00379093501             0.00143790889           
       3.367807               0.008069673             0.00268489416           
       3.370447             0.00675702155             0.00203798263           
       3.373087             0.00559730613             0.00198353383           
       3.375728             0.00263422086              0.0015357319           
       3.378368             0.00373865861              0.0027152956           
       3.381008             0.00990145773             0.00329448031           
       3.383649              0.0076177433             0.00231811498           
       3.386289             0.00689653241             0.00261046418           
       3.388930             0.00491368811             0.00348537455           
       3.391570             0.00238752538             0.00171862905           
       3.394210             0.00393724667             0.00279302248           
       3.396851           -2.64892853e-05                         0           
       3.399491             0.00480344648             0.00345183863           
       3.402131             0.00483041808             0.00489736931           
       3.404772              0.0194130946              0.0138879345           
       3.407412                       nan                       nan           
       3.410053           -2.66045135e-05                         0           
       3.412693                       nan                       nan           
       3.415333           -2.66553542e-05                         0           
