################################################################################
# EDF_DataBlockID                     0.Image.Psd
# EDF_BinarySize                      2105344
# EDF_HeaderSize                      2560
# ByteOrder                           LowByteFirst
# DataType                            FloatValue
# Dim_1                               512
# Dim_2                               1028
# Image                               0
# HeaderID                            EH:000000:000000:000000
# Size                                2105344
# Center_1                            304.9000
# Center_2                            588.7000
# Comment                             Xenocs_Cell_Window - 20251028_20perc_iodine_1.23mg
# DDummy                              0.6
# Date                                2025-10-31T08:48:13
# Delta                               21.910000
# Dummy                               -1.5
# ExposureTime                        360
# Gamma                               15.360000
# Intensity1                          8.52204e-10
# PSize_1                             7.5e-05
# PSize_2                             7.5e-05
# Pressure                            0.0329123
# SampleDistance                      0.115750
# SampleEnvKind                       large
# SampleEnvPN                         ElectroChemical cell
# SampleEnvSN                         1141
# Thickness                           0
# Wavelength                          1.541891e-10
# Wavelength                          1.54189e-10
# aux                                 0
# aux_dial                            0.002375
# beamx                               588.434
# beamx_dial                          588.434
# beamz                               657.808
# beamz_dial                          657.808
# det0x                               0
# det0x_dial                          6.36945
# det0xvd                             0
# det0xvd_dial                        0
# det0y                               450.002
# det0y_dial                          481.635
# det0z                               0
# det0z_dial                          1.23302
# det0zvd                             0
# det0zvd_dial                        0
# mag                                 1.818
# mag_dial                            1.818
# om                                  0.2499
# om_dial                             -0.610199
# phi                                 -0.0120535
# phi_dial                            0
# ry                                  0.599993
# ry_dial                             0.599993
# s1bot                               0.8
# s1bot_dial                          -1.66094
# s1hl                                0.8
# s1hl_dial                           -0.608437
# s1hr                                0.8
# s1hr_dial                           0.970938
# s1top                               0.8
# s1top_dial                          -0.461562
# s2bot                               0.45
# s2bot_dial                          1.36109
# s2hl                                0.45
# s2hl_dial                           -0.83375
# s2hr                                0.45
# s2hr_dial                           -0.118594
# s2top                               0.45
# s2top_dial                          1.44734
# w2theta                             32
# w2theta_dial                        32
# waxsch                              19.2605
# waxsch_dial                         -32.7355
# waxsh                               137.085
# waxsh_dial                          -43.5338
# waxsth                              26.0607
# waxsth_dial                         -19.4086
# waxsz                               67.0407
# waxsz_dial                          -23.7954
# wind                                65.9854
# wind_dial                           66.0041
# wpsi                                124
# wpsi_dial                           124
# wstod                               115
# wstod_dial                          115
# x                                   0
# x_dial                              1.00969
# z                                   0
# z_dial                              13.3172
# CountCutoff                         6807993
# DetectorModel                       Dectris EIGER2 Si 500K, S/N E-01-0554
# ThresholdSetting                    4023.88989258
# Saturation                          0
# FlatField                           Corrected
# BackgroundReductionExtra            0.02
# BackgroundCorrectionConstant        0.0026712
# Detector                            0
# Monitor                             0
# Pil_Roi0                            0
# SumForIntensity1                    3.06793e+08
# TransmittedFlux                     852204
# det                                 0
# mon                                 0
# pilai0                              3.06793e+08
# pilai1                              780510
# pilct0                              5.31274e+08
# pilct1                              780510
# pilroi0                             0
# pilroi1                             0
# sec                                 1
# title                               20251028_20perc_iodine_1.23mg_1_00604.edf
# usaxs0                              0
# Operation                           Azimuthal average I(q)
# Error_model                         ErrorModel.poisson
# Geometrical_correction              True
# Transmission_correction             True
# Thickness_correction                False
# Binning mode                        Uniform
# Binning factor                      1.0
# Psi                                 0.0
# Omega                               0.2499
# MaskInvalidPixels                   True
# DetectorEdge                        3
# MaskFiles                           ['WAXS_corrected.edf']
################################################################################
    q(A⁻¹)                Intensity(a.u.)            Sigma_I(a.u.)            
       0.693100              0.0166091759             0.00860629695           
       0.695741           -2.37972998e-05                         0           
       0.698381           -2.38046684e-05                         0           
       0.701021             0.00884513493             0.00887497782           
       0.703662             0.00571398362             0.00411740895           
       0.706302             0.00695602202             0.00351716009           
       0.708942             0.00853894988              0.0050296174           
       0.711583             0.00661821623             0.00383432558           
       0.714223             0.00585267704             0.00416289743           
       0.716864             0.00626178544              0.0028173338           
       0.719504             0.00734208556             0.00329205279           
       0.722144             0.00627491406             0.00281843342           
       0.724785              0.0103280818             0.00288433119           
       0.727425              0.0103112575             0.00389880178           
       0.730065             0.00649348684             0.00218854529           
       0.732706             0.00611658682             0.00178369203           
       0.735346             0.00613576534             0.00232875491           
       0.737987             0.00920241152             0.00201528888           
       0.740627              0.0156854796             0.00392574303           
       0.743267             0.00481600282             0.00145699645           
       0.745908              0.0057357447              0.0017251178           
       0.748548               0.010088851              0.0021089153           
       0.751189             0.00805344111             0.00253889977           
       0.753829             0.00609545966             0.00203040722           
       0.756469             0.00781636012             0.00185402483           
       0.759110             0.00877534973              0.0020702177           
       0.761750              0.0110677553             0.00205576865           
       0.764390             0.00664802698             0.00166761701           
       0.767031             0.00595006923             0.00136618685           
       0.769671              0.0063501658             0.00176058202           
       0.772312             0.00703417226              0.0014106575           
       0.774952             0.00567764389             0.00171142895           
       0.777592             0.00656222547             0.00134016281           
       0.780233             0.00438574715             0.00132183594           
       0.782873             0.00474940281             0.00131558191           
       0.785513             0.00662808675             0.00166148436           
       0.788154             0.00699270922             0.00142760733           
       0.790794             0.00911032815             0.00194810375           
       0.793435             0.00770382242             0.00160934228           
       0.796075             0.00749696824             0.00152934085           
       0.798715             0.00606740612             0.00162583223           
       0.801356             0.00892920811             0.00169752658           
       0.803996             0.00800983295             0.00163913437           
       0.806637             0.00993490337             0.00145277003           
       0.809277             0.00746839617             0.00136335845           
       0.811917             0.00763082741             0.00128830842           
       0.814558             0.00892447841             0.00144802249           
       0.817198             0.00873376617             0.00136091094           
       0.819838             0.00781330853             0.00130274263           
       0.822479             0.00752092485             0.00150087963           
       0.825119             0.00975493996             0.00145484344           
       0.827760               0.006929839             0.00124210517           
       0.830400             0.00921560898             0.00134813698           
       0.833040             0.00731853227             0.00125868674           
       0.835681              0.0069219248             0.00139159926           
       0.838321             0.00946314237             0.00136569008           
       0.840961             0.00790974109             0.00136038424           
       0.843602              0.0078368823             0.00124176897           
       0.846242             0.00742931701             0.00120886778           
       0.848883             0.00596802446             0.00110878267           
       0.851523             0.00861862698             0.00131589624           
       0.854163             0.00568973286             0.00113701898           
       0.856804              0.0058471587              0.0010363827           
       0.859444             0.00580086804             0.00101142725           
       0.862085             0.00901701055             0.00131429083           
       0.864725             0.00802670439             0.00126903288           
       0.867365             0.00585659541             0.00100517748           
       0.870006             0.00578461493            0.000951952436           
       0.872646             0.00707067715              0.0011036574           
       0.875286             0.00745575999              0.0010903169           
       0.877927             0.00771228717             0.00107005157           
       0.880567             0.00735662856             0.00108273157           
       0.883208               0.006715189             0.00102470692           
       0.885848              0.0075570644             0.00112867874           
       0.888488             0.00830697541             0.00110991445           
       0.891129             0.00717742009             0.00105933766           
       0.893769             0.00687025439             0.00099188284           
       0.896410             0.00532350438             0.00081405161           
       0.899050             0.00603069044            0.000952844396           
       0.901690             0.00838153592             0.00122361281           
       0.904331             0.00913309926             0.00113239257           
       0.906971             0.00778124588             0.00111195415           
       0.909611             0.00708834293            0.000966114914           
       0.912252             0.00996478895             0.00118316862           
       0.914892             0.00836682709             0.00118475471           
       0.917533             0.00790422999             0.00108934962           
       0.920173              0.0063218084             0.00090388697           
       0.922813               0.007385695             0.00102523865           
       0.925454             0.00703533717            0.000901036059           
       0.928094             0.00682391698            0.000947368122           
       0.930734             0.00744994634             0.00106570529           
       0.933375              0.0064258998            0.000980024674           
       0.936015             0.00786384817            0.000984636038           
       0.938656             0.00725558759             0.00101460859           
       0.941296             0.00769570842            0.000946992886           
       0.943936             0.00659665752            0.000859806316           
       0.946577             0.00816729194            0.000950379321           
       0.949217              0.0087850196              0.0009064083           
       0.951858             0.00788502835            0.000898913753           
       0.954498             0.00906904648             0.00111586481           
       0.957138             0.00654156027            0.000897817203           
       0.959779             0.00514067338            0.000784591558           
       0.962419             0.00647960797             0.00087500303           
       0.965059             0.00864310374             0.00106286417           
       0.967700             0.00754206179              0.0010168855           
       0.970340             0.00759778012            0.000903160789           
       0.972981             0.00871275604             0.00088117792           
       0.975621             0.00767367597            0.000879749132           
       0.978261             0.00656320792            0.000773070658           
       0.980902             0.00844999528             0.00104950361           
       0.983542              0.0078604611            0.000896396689           
       0.986182             0.00838412461            0.000908919468           
       0.988823             0.00763789686            0.000842371069           
       0.991463              0.0105619011             0.00105684074           
       0.994104              0.0082370529            0.000910455147           
       0.996744             0.00911793811            0.000977052083           
       0.999384             0.00635250784            0.000729360088           
       1.002025             0.00835438566            0.000933560038           
       1.004665             0.00748434182            0.000807512403           
       1.007306             0.00748963511            0.000803663152           
       1.009946              0.0083414024             0.00086497561           
       1.012586             0.00688425703            0.000765324402           
       1.015227             0.00843888536            0.000910312328           
       1.017867             0.00708292235            0.000801509657           
       1.020507             0.00802189029            0.000826230909           
       1.023148             0.00772750955            0.000875014609           
       1.025788             0.00889060862            0.000860583991           
       1.028429             0.00703317263            0.000801909518           
       1.031069             0.00836116668            0.000822792898           
       1.033709             0.00894929664            0.000904869222           
       1.036350             0.00758350546            0.000748115777           
       1.038990             0.00787529361             0.00077638209           
       1.041630             0.00674416211            0.000749367145           
       1.044271             0.00706268348            0.000721203037           
       1.046911             0.00897304186            0.000855075386           
       1.049552             0.00882469325            0.000890908032           
       1.052192             0.00833597663            0.000790664756           
       1.054832             0.00916472586            0.000836578555           
       1.057473             0.00868665876            0.000802892278           
       1.060113             0.00740296086            0.000722868579           
       1.062754             0.00794210873            0.000764438898           
       1.065394              0.0075553207            0.000788283618           
       1.068034             0.00836794827            0.000754816681           
       1.070675             0.00831629615            0.000784932718           
       1.073315             0.00785408125            0.000773741696           
       1.075955             0.00822040696            0.000747297036           
       1.078596             0.00813553272            0.000790117721           
       1.081236             0.00837275484             0.00076754063           
       1.083877             0.00628137615             0.00065884175           
       1.086517             0.00849060756            0.000821365437           
       1.089157             0.00924460798            0.000889295897           
       1.091798             0.00898597884            0.000768677033           
       1.094438             0.00915423488            0.000773336049           
       1.097078             0.00800192927            0.000693458869           
       1.099719              0.0102322568            0.000848197493           
       1.102359             0.00840052384             0.00071974355           
       1.105000             0.00755614419            0.000763294644           
       1.107640             0.00881497977            0.000788287271           
       1.110280              0.0077795368            0.000675689695           
       1.112921             0.00812790928            0.000741910568           
       1.115561             0.00754173357             0.00067922176           
       1.118202             0.00754081249            0.000679820252           
       1.120842             0.00877917591             0.00077093417           
       1.123482             0.00892122196            0.000773751677           
       1.126123             0.00825118215            0.000713743218           
       1.128763             0.00893597847            0.000747863717           
       1.131403             0.00964158269             0.00074854152           
       1.134044             0.00911733052             0.00074901753           
       1.136684              0.0088151504            0.000785237148           
       1.139325             0.00776861919            0.000679064909           
       1.141965              0.0090202547             0.00073656384           
       1.144605             0.00781752954            0.000653819402           
       1.147246             0.00834837076            0.000691472709           
       1.149886             0.00870301006            0.000703500577           
       1.152527             0.00847931765            0.000704498705           
       1.155167              0.0083136766            0.000663508326           
       1.157807             0.00901339485            0.000740731768           
       1.160448              0.0085515065            0.000704566064           
       1.163088             0.00807286064            0.000652973436           
       1.165728              0.0095264625            0.000728281327           
       1.168369             0.00836536922            0.000688762902           
       1.171009             0.00853832881            0.000675300434           
       1.173650             0.00887616984            0.000706596803           
       1.176290             0.00962382711            0.000718996939           
       1.178930             0.00908520112            0.000684678719           
       1.181571             0.00932473452              0.0007074011           
       1.184211             0.00965985407             0.00072255328           
       1.186851             0.00919905997            0.000689375005           
       1.189492              0.0100839956             0.00071691643           
       1.192132             0.00989405456            0.000702164755           
       1.194773             0.00909340735            0.000676096381           
       1.197413             0.00831390857            0.000619409122           
       1.200053             0.00970576925            0.000686257112           
       1.202694              0.0102693192            0.000671269769           
       1.205334              0.0096621731            0.000701707821           
       1.207975             0.00982802638            0.000675524076           
       1.210615              0.0102318283            0.000760373028           
       1.213255              0.0090052804            0.000638782674           
       1.215896              0.0102262258            0.000693043884           
       1.218536             0.00922892587            0.000633063456           
       1.221176              0.0103618736            0.000729293462           
       1.223817             0.00958274039             0.00065835889           
       1.226457              0.0102441562            0.000694413875           
       1.229098              0.0099892865            0.000685687717           
       1.231738             0.00886616842            0.000649171314           
       1.234378              0.0107189194            0.000670707388           
       1.237019             0.00920757651            0.000640581309           
       1.239659              0.0108997991            0.000690893527           
       1.242299             0.00902096422            0.000620547795           
       1.244940               0.010774565            0.000659578114           
       1.247580              0.0105096282            0.000671339956           
       1.250221             0.00942635189            0.000631877059           
       1.252861              0.0104308698            0.000632790816           
       1.255501              0.0102302645            0.000680450784           
       1.258142              0.0111819472             0.00066848508           
       1.260782              0.0106350487            0.000666038698           
       1.263423               0.010120503            0.000624313953           
       1.266063              0.0104160674            0.000649180705           
       1.268703              0.0102027928            0.000637168668           
       1.271344             0.00959527829            0.000638849127           
       1.273984              0.0107127425            0.000651940977           
       1.276624              0.0111152146            0.000651598946           
       1.279265              0.0101040158            0.000631569814           
       1.281905             0.00985644721            0.000626552918           
       1.284546             0.00881811728             0.00057283309           
       1.287186              0.0108850429            0.000624411964           
       1.289826               0.010909341            0.000658813171           
       1.292467              0.0104661166            0.000631078213           
       1.295107             0.00994589267            0.000609083185           
       1.297747              0.0114464719            0.000625265971           
       1.300388              0.0102140644            0.000643880186           
       1.303028              0.0106104415            0.000626500217           
       1.305669              0.0108453011            0.000648477723           
       1.308309              0.0120590418            0.000677068606           
       1.310949              0.0126255658            0.000692093915           
       1.313590             0.00988730876            0.000593316452           
       1.316230              0.0111694737            0.000672952843           
       1.318871              0.0111056368             0.00065718858           
       1.321511              0.0105281464            0.000628013423           
       1.324151             0.00971951059            0.000585524705           
       1.326792              0.0109169458            0.000624381921           
       1.329432              0.0104742844            0.000607276292           
       1.332072              0.0120240353             0.00064095603           
       1.334713              0.0112708703             0.00064047665           
       1.337353               0.011892935            0.000630952604           
       1.339994              0.0105627862            0.000623997252           
       1.342634              0.0119584831            0.000636680642           
       1.345274              0.0112691669            0.000639632347           
       1.347915              0.0106089176            0.000603473714           
       1.350555              0.0110245641            0.000625956076           
       1.353195              0.0110001176            0.000628332644           
       1.355836               0.011503436             0.00063252747           
       1.358476              0.0118623055            0.000623788386           
       1.361117              0.0114800335            0.000614497359           
       1.363757               0.010742159              0.0006125715           
       1.366397              0.0119907438            0.000627608517           
       1.369038              0.0111550064            0.000611369346           
       1.371678              0.0114773852            0.000614673494           
       1.374319              0.0106930835            0.000588191366           
       1.376959              0.0108471973            0.000586457204           
       1.379599              0.0101399812            0.000607670588           
       1.382240              0.0102590188             0.00057446166           
       1.384880              0.0106475801            0.000619901557           
       1.387520              0.0103256421            0.000579770815           
       1.390161              0.0109702828            0.000567571395           
       1.392801              0.0106110186            0.000581590686           
       1.395442               0.011872861            0.000623602612           
       1.398082              0.0115066126               0.000574899           
       1.400722              0.0107934703             0.00058323405           
       1.403363              0.0105487608             0.00060692535           
       1.406003              0.0104238361             0.00056462729           
       1.408644              0.0121015555            0.000637308433           
       1.411284              0.0110159204            0.000575769627           
       1.413924              0.0115847706            0.000588259622           
       1.416565              0.0115564459            0.000585232112           
       1.419205              0.0116090881            0.000611879358           
       1.421845              0.0105294009            0.000582389443           
       1.424486              0.0110057466             0.00057233285           
       1.427126              0.0110616045            0.000596049995           
       1.429767              0.0117242534            0.000577364053           
       1.432407               0.010771321            0.000579149325           
       1.435047              0.0119356271             0.00057256005           
       1.437688              0.0113266309            0.000566101355           
       1.440328               0.010994889            0.000569246046           
       1.442968              0.0118710553            0.000604745249           
       1.445609              0.0106137992            0.000553685302           
       1.448249              0.0110803662            0.000580047771           
       1.450890              0.0114488589            0.000585765639           
       1.453530              0.0106027912            0.000589750177           
       1.456170              0.0106509129            0.000573663779           
       1.458811              0.0111145892            0.000560362571           
       1.461451               0.010260404            0.000539811847           
       1.464092              0.0113650057            0.000571840761           
       1.466732              0.0109284166            0.000555930845           
       1.469372              0.0108438625            0.000540815966           
       1.472013              0.0107853791            0.000581705819           
       1.474653               0.010191359            0.000556736885           
       1.477293              0.0118460747            0.000612885758           
       1.479934              0.0105895152            0.000552934643           
       1.482574              0.0106899225            0.000537407689           
       1.485215              0.0105527104            0.000543892456           
       1.487855              0.0110778191            0.000564611555           
       1.490495               0.010215615             0.00054019737           
       1.493136              0.0119901793            0.000577216914           
       1.495776              0.0109623976            0.000549410533           
       1.498416             0.00965365779            0.000532441072           
       1.501057              0.0108977099            0.000553241782           
       1.503697              0.0106319307            0.000534245711           
       1.506338              0.0114549161            0.000564670859           
       1.508978              0.0104433763            0.000533860465           
       1.511618              0.0107326822            0.000576380195           
       1.514259               0.010709646            0.000555870568           
       1.516899             0.00928966798            0.000504077534           
       1.519540              0.0107045559            0.000549830753           
       1.522180               0.010252672            0.000542827232           
       1.524820              0.0110196339            0.000559607108           
       1.527461              0.0113607923            0.000571013708           
       1.530101             0.00951257287            0.000517280311           
       1.532741              0.0107616547            0.000547001806           
       1.535382              0.0108862645            0.000559016468           
       1.538022              0.0100978168            0.000507194125           
       1.540663             0.00995273063            0.000541585396           
       1.543303              0.0104904601            0.000516276821           
       1.545943              0.0100268838            0.000534230791           
       1.548584              0.0108777405             0.00056642444           
       1.551224             0.00997815335            0.000501590187           
       1.553864              0.0106644938            0.000547949297           
       1.556505              0.0101445603            0.000516268505           
       1.559145             0.00964905677            0.000509670142           
       1.561786              0.0108505356            0.000540887188           
       1.564426              0.0101464218            0.000506774402           
       1.567066              0.0113790234            0.000562331508           
       1.569707              0.0103971028             0.00052786623           
       1.572347               0.010496744              0.0005479455           
       1.574988             0.00924067391            0.000489353092           
       1.577628             0.00940541055            0.000514802943           
       1.580268             0.00911231167            0.000490955881           
       1.582909             0.00910045457            0.000520055027           
       1.585549             0.00940854625            0.000513433204           
       1.588189             0.00982363189            0.000513186378           
       1.590830              0.0090758598            0.000492648926           
       1.593470             0.00863494523             0.00049956039           
       1.596111             0.00828684355            0.000477794121           
       1.598751             0.00865849237            0.000473234203           
       1.601391             0.00966750476            0.000511081013           
       1.604032             0.00964305625            0.000521105072           
       1.606672             0.00869063157            0.000480649906           
       1.609312             0.00935003746            0.000520429269           
       1.611953             0.00934096346            0.000509025303           
       1.614593             0.00897074921            0.000489318727           
       1.617234             0.00921090133            0.000513861643           
       1.619874             0.00987596177             0.00052998779           
       1.622514             0.00932094171            0.000507856323           
       1.625155             0.00887426316            0.000498465568           
       1.627795             0.00811429894            0.000464965778           
       1.630436             0.00951774085            0.000500943497           
       1.633076             0.00924896435            0.000500296281           
       1.635716             0.00797393144            0.000457305683           
       1.638357             0.00890502864            0.000484541787           
       1.640997             0.00950825102            0.000515850951           
       1.643637             0.00897497826            0.000487701134           
       1.646278             0.00916953937            0.000508447846           
       1.648918             0.00882363794            0.000500126201           
       1.651559             0.00912964981             0.00051267316           
       1.654199             0.00885837151            0.000491155828           
       1.656839             0.00931831605            0.000503921219           
       1.659480             0.00853608226            0.000500418136           
       1.662120             0.00923738777            0.000490290274           
       1.664761             0.00888027325            0.000499343613           
       1.667401             0.00833063936            0.000462259786           
       1.670041             0.00867139731            0.000478810341           
       1.672682             0.00862246648            0.000475495086           
       1.675322             0.00891035957            0.000480259705           
       1.677962             0.00893429349            0.000475599289           
       1.680603             0.00925021782            0.000485424229           
       1.683243             0.00812295831            0.000474588718           
       1.685884             0.00890657389            0.000500623187           
       1.688524             0.00795471431            0.000463970903           
       1.691164              0.0091521252            0.000497780627           
       1.693805             0.00837016913            0.000481270246           
       1.696445             0.00858954811            0.000490364469           
       1.699085             0.00879554219            0.000479582531           
       1.701726             0.00854726397            0.000455426851           
       1.704366             0.00865406425            0.000482767883           
       1.707007              0.0089589921            0.000480250103           
       1.709647             0.00822511974            0.000465356776           
       1.712287             0.00835936756             0.00047322261           
       1.714928             0.00896299561            0.000493961234           
       1.717568              0.0079337855            0.000437783345           
       1.720209             0.00871924758            0.000480710696           
       1.722849             0.00850847794            0.000472423734           
       1.725489             0.00866445444            0.000477134589           
       1.728130              0.0088923942            0.000513686798           
       1.730770              0.0077792653            0.000456309035           
       1.733410             0.00886277476            0.000479395244           
       1.736051             0.00885461575            0.000482509802           
       1.738691             0.00789839033            0.000446474243           
       1.741332             0.00802450723            0.000463183662           
       1.743972             0.00812014182            0.000481157586           
       1.746612             0.00825985113            0.000465991706           
       1.749253             0.00889009279            0.000492990161           
       1.751893             0.00884019463            0.000487996224           
       1.754533              0.0085198462            0.000478625305           
       1.757174             0.00919351911            0.000492532125           
       1.759814             0.00827986184             0.00046033262           
       1.762455             0.00781964356            0.000455570841           
       1.765095             0.00897592769            0.000466919795           
       1.767735             0.00823426992            0.000461010303           
       1.770376             0.00814237732            0.000459639249           
       1.773016             0.00885497761            0.000476119995           
       1.775657             0.00897517021            0.000472443345           
       1.778297             0.00864210602            0.000459602452           
       1.780937             0.00885291571            0.000490991297           
       1.783578             0.00911393199            0.000485720295           
       1.786218             0.00847373468            0.000488774764           
       1.788858             0.00866562964             0.00046944497           
       1.791499             0.00823708202            0.000452549613           
       1.794139             0.00926383516            0.000476032966           
       1.796780             0.00879617479            0.000461625498           
       1.799420             0.00854302809            0.000452415089           
       1.802060             0.00912796778             0.00047142439           
       1.804701             0.00925758095            0.000455600919           
       1.807341             0.00859611528            0.000461317336           
       1.809981              0.0098671484            0.000495895351           
       1.812622             0.00915677979            0.000469111031           
       1.815262             0.00969543156            0.000492965617           
       1.817903             0.00950988545            0.000480991792           
       1.820543              0.0086145787            0.000464924195           
       1.823183             0.00996947553            0.000499876204           
       1.825824             0.00830816962            0.000435959161           
       1.828464              0.0083746978            0.000456322388           
       1.831105              0.0081663459            0.000438151863           
       1.833745             0.00934605945            0.000478743183           
       1.836385             0.00874481835            0.000476304033           
       1.839026              0.0086316628            0.000471717287           
       1.841666              0.0082598422            0.000459809267           
       1.844306              0.0082801575            0.000447812837           
       1.846947             0.00862734746            0.000461111768           
       1.849587             0.00832006938             0.00050002931           
       1.852228             0.00903537726             0.00047118624           
       1.854868             0.00804979094            0.000469808052           
       1.857508              0.0088881042             0.00048882362           
       1.860149             0.00883681213            0.000496266674           
       1.862789               0.008577667            0.000471936179           
       1.865429             0.00839106311             0.00048724122           
       1.868070             0.00886437958            0.000494119959           
       1.870710             0.00952841379            0.000500482422           
       1.873351             0.00960372387            0.000508667877           
       1.875991             0.00878990128            0.000494580558           
       1.878631             0.00861109891            0.000480148911           
       1.881272             0.00941643793            0.000498735516           
       1.883912             0.00904678582            0.000508748918           
       1.886553             0.00872898886            0.000494146301           
       1.889193              0.0092617602            0.000508133289           
       1.891833             0.00936906283            0.000530764376           
       1.894474             0.00987666903            0.000540206875           
       1.897114             0.00843669179            0.000483139251           
       1.899754             0.00874951459            0.000494073478           
       1.902395             0.00862668134            0.000481001422           
       1.905035             0.00985915438            0.000544639336           
       1.907676             0.00780024944            0.000456589723           
       1.910316              0.0087841693            0.000497396889           
       1.912956             0.00864175893            0.000482494748           
       1.915597              0.0100948318             0.00052439859           
       1.918237             0.00911791212            0.000514704169           
       1.920878             0.00842778644             0.00049281651           
       1.923518             0.00818835091            0.000485971656           
       1.926158             0.00921569593            0.000508866999           
       1.928799             0.00846555102            0.000482071475           
       1.931439             0.00889129215            0.000507003004           
       1.934079             0.00827847067            0.000509998576           
       1.936720             0.00874605364            0.000485689836           
       1.939360             0.00855722686            0.000512539248           
       1.942001             0.00922120169            0.000487653238           
       1.944641             0.00852003917            0.000477979875           
       1.947281             0.00818109321            0.000464058588           
       1.949922             0.00780078385            0.000468057704           
       1.952562             0.00827084277            0.000497060654           
       1.955202             0.00910841467            0.000520986163           
       1.957843             0.00792894644             0.00047347976           
       1.960483             0.00873566474            0.000519595206           
       1.963124             0.00820228466            0.000493153565           
       1.965764             0.00772196259            0.000451235436           
       1.968404             0.00832002105            0.000463958006           
       1.971045              0.0088489139            0.000487832887           
       1.973685             0.00805253425            0.000488131643           
       1.976326             0.00862898177            0.000498356611           
       1.978966             0.00863999089            0.000503050711           
       1.981606             0.00928534128            0.000532375908           
       1.984247              0.0075854034            0.000478017831           
       1.986887             0.00761332915            0.000473160309           
       1.989527             0.00906090872            0.000510627771           
       1.992168             0.00801631453            0.000498344315           
       1.994808             0.00795498275            0.000494306265           
       1.997449             0.00939707731            0.000526212473           
       2.000089             0.00809956514            0.000486598014           
       2.002729             0.00851843623            0.000499320864           
       2.005370             0.00844032301            0.000491678381           
       2.008010             0.00895540095            0.000528562324           
       2.010650             0.00794593632            0.000501596883           
       2.013291             0.00723282277            0.000459151625           
       2.015931             0.00815437708            0.000484079538           
       2.018572             0.00797934105            0.000512181671           
       2.021212              0.0075052963            0.000487809937           
       2.023852             0.00828655568            0.000485123991           
       2.026493             0.00746858092            0.000481135259           
       2.029133              0.0071683461            0.000461879542           
       2.031774             0.00810013716            0.000515274531           
       2.034414             0.00814574829            0.000475457151           
       2.037054             0.00860180401            0.000500969639           
       2.039695             0.00675239398            0.000440507226           
       2.042335              0.0074794526            0.000481799514           
       2.044975             0.00851181553            0.000507742541           
       2.047616             0.00877206094            0.000514165715           
       2.050256             0.00865458927            0.000515544516           
       2.052897              0.0076376692            0.000493238453           
       2.055537             0.00835670358            0.000498630429           
       2.058177             0.00786465178            0.000473699933           
       2.060818             0.00831820368            0.000510345738           
       2.063458             0.00716530611            0.000493601203           
       2.066098              0.0084720587            0.000506313206           
       2.068739             0.00751735959            0.000484346514           
       2.071379             0.00771103306            0.000503339666           
       2.074020             0.00842595175            0.000514720966           
       2.076660             0.00769810302            0.000495964892           
       2.079300             0.00793944242            0.000516020425           
       2.081941             0.00770504661            0.000465448796           
       2.084581             0.00704131931             0.00046964916           
       2.087222             0.00774314975            0.000474968221           
       2.089862             0.00773545088            0.000517055626           
       2.092502              0.0083826975            0.000521759311           
       2.095143             0.00845033029            0.000540963692           
       2.097783             0.00772838945            0.000500871871           
       2.100423             0.00795672559            0.000489714023           
       2.103064             0.00735145746            0.000488434609           
       2.105704              0.0070645319            0.000476436342           
       2.108345             0.00717666646            0.000461346358           
       2.110985             0.00696807411            0.000485537495           
       2.113625             0.00817000213            0.000530335729           
       2.116266             0.00814962512            0.000537188779           
       2.118906             0.00833868427            0.000506403486           
       2.121546             0.00724466969             0.00046300429           
       2.124187             0.00801873442            0.000511316932           
       2.126827             0.00769899881            0.000506610966           
       2.129468             0.00727514335             0.00049372618           
       2.132108             0.00707297921            0.000473636805           
       2.134748             0.00864887373            0.000521717956           
       2.137389             0.00744356842             0.00050493366           
       2.140029             0.00697982551            0.000437739457           
       2.142670             0.00762580704             0.00048899102           
       2.145310             0.00769455165            0.000478084159           
       2.147950             0.00780572959            0.000495621138           
       2.150591             0.00842944427             0.00050983683           
       2.153231              0.0073949992            0.000491543049           
       2.155871             0.00731745629            0.000472367039           
       2.158512             0.00733781365            0.000493566638           
       2.161152             0.00743760576            0.000481339467           
       2.163793              0.0075404007            0.000482472478           
       2.166433             0.00774807104            0.000502224646           
       2.169073             0.00744713147            0.000481412773           
       2.171714             0.00763866246            0.000483919368           
       2.174354             0.00803727362            0.000518676559           
       2.176995             0.00657645779            0.000467204482           
       2.179635             0.00739500283            0.000523525814           
       2.182275             0.00692090245            0.000478184265           
       2.184916             0.00800154827            0.000496614805           
       2.187556             0.00702933657            0.000460802671           
       2.190196             0.00838279993            0.000525851432           
       2.192837             0.00828557247            0.000519948586           
       2.195477             0.00768431837            0.000477384608           
       2.198118              0.0072070455            0.000474168117           
       2.200758             0.00689697375            0.000475887908           
       2.203398             0.00761866594             0.00050336653           
       2.206039             0.00779843599            0.000481981531           
       2.208679             0.00763610035            0.000488038267           
       2.211319             0.00674523741            0.000461332052           
       2.213960             0.00773085139            0.000500505502           
       2.216600             0.00752661087            0.000510876655           
       2.219241             0.00746838041             0.00048636763           
       2.221881             0.00760681547            0.000491863851           
       2.224521             0.00855028311            0.000527865343           
       2.227162             0.00711528377            0.000471894801           
       2.229802             0.00738708783            0.000495875216           
       2.232443             0.00772712441            0.000499160303           
       2.235083              0.0072123052            0.000496470369           
       2.237723              0.0068292952            0.000463612265           
       2.240364             0.00717697175            0.000486975481           
       2.243004             0.00666078366            0.000465391525           
       2.245644             0.00757290188            0.000501201545           
       2.248285             0.00692257897             0.00046959846           
       2.250925             0.00703260867            0.000476190926           
       2.253566             0.00665541509            0.000495244051           
       2.256206             0.00722926595            0.000505832879           
       2.258846             0.00665880723            0.000461811769           
       2.261487              0.0072151516            0.000504557114           
       2.264127             0.00790452081            0.000510041437           
       2.266767             0.00829031992            0.000536256628           
       2.269408             0.00727816971            0.000504513662           
       2.272048             0.00674247383            0.000482693389           
       2.274689             0.00765816062            0.000521205495           
       2.277329             0.00720104557            0.000475876853           
       2.279969             0.00752900816            0.000517950177           
       2.282610             0.00662704017            0.000472420609           
       2.285250             0.00735117427            0.000476234654           
       2.287891             0.00678166465            0.000490418382           
       2.290531             0.00729717229             0.00051555509           
       2.293171             0.00729425689            0.000502096947           
       2.295812             0.00741648293             0.00050425106           
       2.298452             0.00716402055            0.000518259849           
       2.301092             0.00637710366            0.000454311827           
       2.303733             0.00654086758             0.00047867327           
       2.306373             0.00672885859            0.000493149265           
       2.309014             0.00700479216            0.000493343584           
       2.311654             0.00715461425            0.000520304011           
       2.314294             0.00746301708            0.000489580476           
       2.316935             0.00765548046            0.000497901754           
       2.319575             0.00693235966            0.000496436072           
       2.322215             0.00772829207            0.000546264057           
       2.324856             0.00699094118            0.000477673813           
       2.327496              0.0073696168             0.00052149194           
       2.330137             0.00632333657            0.000462249323           
       2.332777              0.0063122192            0.000476209158           
       2.335417             0.00747328175             0.00050269094           
       2.338058             0.00763647035            0.000523329294           
       2.340698             0.00740736082            0.000511368669           
       2.343339             0.00738306092            0.000521763878           
       2.345979             0.00795740671            0.000512470901           
       2.348619             0.00699579075            0.000498073681           
       2.351260             0.00791108098            0.000526569134           
       2.353900             0.00833597404            0.000538812573           
       2.356540             0.00714410077            0.000498099839           
       2.359181              0.0071214881            0.000490338866           
       2.361821             0.00749749293            0.000485997594           
       2.364462             0.00690270247            0.000487714195           
       2.367102             0.00768105571            0.000528707794           
       2.369742             0.00782962689             0.00056185777           
       2.372383             0.00787499767            0.000510232769           
       2.375023             0.00662522828            0.000491966807           
       2.377663             0.00774988252             0.00050875364           
       2.380304             0.00722008964            0.000499244049           
       2.382944             0.00667115992            0.000457080644           
       2.385585             0.00801476797            0.000534325019           
       2.388225             0.00723531675            0.000505292982           
       2.390865             0.00736843411             0.00050468204           
       2.393506             0.00790779111            0.000512963061           
       2.396146             0.00834092284            0.000569625878           
       2.398787             0.00691218441            0.000477883712           
       2.401427             0.00747364788            0.000479636188           
       2.404067             0.00714231795            0.000479342519           
       2.406708             0.00725952772            0.000477464595           
       2.409348             0.00758194955            0.000517568947           
       2.411988             0.00777592156            0.000513548816           
       2.414629             0.00736008592            0.000515188892           
       2.417269              0.0067077193            0.000497569354           
       2.419910             0.00742283356            0.000524635455           
       2.422550             0.00712757889            0.000491854865           
       2.425190             0.00698874286            0.000513392029           
       2.427831              0.0072406338            0.000519624565           
       2.430471             0.00687735862            0.000482464393           
       2.433112             0.00750946253            0.000490920896           
       2.435752             0.00646556857            0.000482085709           
       2.438392              0.0069162199            0.000481254232           
       2.441033             0.00786206747            0.000543791046           
       2.443673             0.00712277701            0.000517990854           
       2.446313             0.00686320599            0.000508913158           
       2.448954             0.00614023862            0.000458324951           
       2.451594             0.00735452001             0.00053933785           
       2.454235             0.00657934111            0.000478625649           
       2.456875             0.00707550616            0.000519354615           
       2.459515             0.00693904114            0.000527636269           
       2.462156             0.00808630698            0.000537769397           
       2.464796             0.00742340211            0.000508607652           
       2.467436             0.00792868939            0.000543565601           
       2.470077             0.00739742522            0.000497641664           
       2.472717             0.00860393403            0.000539016657           
       2.475358             0.00829229681            0.000534682586           
       2.477998              0.0080372489            0.000517521416           
       2.480638             0.00748590498            0.000508330329           
       2.483279             0.00624691051            0.000485332132           
       2.485919             0.00696216954            0.000493779964           
       2.488560             0.00671093026            0.000483434171           
       2.491200             0.00675960394            0.000499611453           
       2.493840             0.00711436303            0.000542349434           
       2.496481             0.00639108257             0.00050563315           
       2.499121             0.00804758484            0.000551876667           
       2.501761             0.00686684998            0.000516540561           
       2.504402             0.00734686457            0.000526483594           
       2.507042             0.00724518149            0.000518954477           
       2.509683             0.00655394435            0.000486034635           
       2.512323              0.0072729734            0.000537729531           
       2.514963             0.00700961981            0.000521382227           
       2.517604             0.00781402993             0.00057121421           
       2.520244             0.00712107003            0.000511218097           
       2.522884             0.00630827924            0.000488040514           
       2.525525             0.00759846552            0.000541707606           
       2.528165             0.00780999358            0.000540635249           
       2.530806              0.0091348212            0.000594885914           
       2.533446              0.0127913838            0.000688925626           
       2.536086             0.00837082726            0.000552323045           
       2.538727             0.00778368072            0.000510949118           
       2.541367             0.00723980063             0.00049762882           
       2.544008             0.00634183546            0.000481002561           
       2.546648             0.00713221434            0.000518845731           
       2.549288             0.00729222772            0.000535323527           
       2.551929             0.00783415749            0.000546014124           
       2.554569             0.00726994475            0.000506742435           
       2.557209             0.00694586729            0.000499867866           
       2.559850             0.00708051105            0.000506310178           
       2.562490             0.00711768533            0.000524670675           
       2.565131             0.00823556321            0.000585164406           
       2.567771             0.00633331257            0.000494756353           
       2.570411             0.00635403033            0.000490202979           
       2.573052             0.00686178144            0.000515828015           
       2.575692             0.00604674321            0.000481292821           
       2.578332             0.00729916318            0.000530979035           
       2.580973             0.00667604786            0.000502977554           
       2.583613             0.00624037273            0.000474709678           
       2.586254             0.00789936598            0.000533353259           
       2.588894             0.00668576566            0.000509543129           
       2.591534             0.00678686378            0.000531445853           
       2.594175             0.00663947543            0.000515724369           
       2.596815             0.00660486605            0.000517411366           
       2.599456             0.00754952242            0.000524574675           
       2.602096             0.00684294698            0.000503224498           
       2.604736             0.00646795971            0.000500843123           
       2.607377             0.00786104067             0.00053760029           
       2.610017             0.00606276661            0.000463860739           
       2.612657             0.00638496308            0.000506326259           
       2.615298              0.0071978247            0.000524857815           
       2.617938             0.00666161418             0.00054014556           
       2.620579              0.0078137692            0.000561588253           
       2.623219             0.00688318351            0.000526335765           
       2.625859             0.00673231296            0.000506106516           
       2.628500             0.00710111205            0.000516377088           
       2.631140             0.00626371105            0.000492447964           
       2.633780             0.00703344481            0.000521375748           
       2.636421             0.00754665725            0.000553343765           
       2.639061             0.00747699735            0.000518499835           
       2.641702             0.00695888498            0.000511793079           
       2.644342             0.00720918952            0.000523135734           
       2.646982             0.00773413775            0.000533747057           
       2.649623             0.00706301428            0.000534526483           
       2.652263             0.00732913097            0.000539039119           
       2.654904             0.00663578947            0.000513425029           
       2.657544             0.00789896948            0.000527617308           
       2.660184             0.00658882803             0.00050996819           
       2.662825             0.00626972823            0.000509007078           
       2.665465             0.00613598981            0.000487014867           
       2.668105             0.00673747797            0.000537904268           
       2.670746             0.00699659812            0.000506374123           
       2.673386              0.0114789646            0.000668438073           
       2.676027              0.0127004037            0.000691818111           
       2.678667             0.00995402216            0.000597614371           
       2.681307              0.0115297371            0.000631959333           
       2.683948              0.0147744331             0.00073501649           
       2.686588              0.0116859545            0.000642852317           
       2.689229               0.010044366            0.000582378671           
       2.691869             0.00959504311            0.000601591639           
       2.694509             0.00819729045            0.000556355086           
       2.697150             0.00669547002            0.000494656429           
       2.699790             0.00774489057            0.000557737303           
       2.702430             0.00781429323            0.000535513201           
       2.705071             0.00656997876               0.000507386           
       2.707711             0.00657213894            0.000492537089           
       2.710352             0.00674742349            0.000527321529           
       2.712992             0.00650013221            0.000527138083           
       2.715632             0.00650954107            0.000489433399           
       2.718273             0.00664360139            0.000512428306           
       2.720913             0.00628085918            0.000496824937           
       2.723553             0.00765588301            0.000552199074           
       2.726194             0.00743935971            0.000569008907           
       2.728834             0.00722896651            0.000561168264           
       2.731475             0.00785457555            0.000539854589           
       2.734115             0.00774790949             0.00055281688           
       2.736755             0.00729722093            0.000540913393           
       2.739396             0.00688200757            0.000522255482           
       2.742036             0.00733781955            0.000564383786           
       2.744677              0.0070661265            0.000537374258           
       2.747317             0.00720660341            0.000538819784           
       2.749957             0.00635019461            0.000509341307           
       2.752598             0.00780142151              0.0005706766           
       2.755238             0.00803416644            0.000589581268           
       2.757878             0.00829109312             0.00059369764           
       2.760519             0.00740702646            0.000555203074           
       2.763159             0.00883541036            0.000600318097           
       2.765800             0.00737340362            0.000522622219           
       2.768440             0.00795925246            0.000546987846           
       2.771080             0.00836623256              0.0005654791           
       2.773721             0.00767865339            0.000555718961           
       2.776361             0.00665142361            0.000524349135           
       2.779001             0.00698726286            0.000556556667           
       2.781642             0.00693610908            0.000550429139           
       2.784282             0.00638736944            0.000536893208           
       2.786923             0.00678483928            0.000558217964           
       2.789563             0.00812307274            0.000588265597           
       2.792203             0.00773075628            0.000548223292           
       2.794844             0.00703032777            0.000572978545           
       2.797484             0.00680776874            0.000532123829           
       2.800125             0.00726828825            0.000578143709           
       2.802765             0.00797704749            0.000595256951           
       2.805405             0.00718999888            0.000567042009           
       2.808046             0.00702357752            0.000570293435           
       2.810686             0.00750496097             0.00054169391           
       2.813326             0.00695189108            0.000541541054           
       2.815967             0.00686493168            0.000553444367           
       2.818607             0.00608569386             0.00049726062           
       2.821248             0.00700138257            0.000522287522           
       2.823888             0.00641373225            0.000518896948           
       2.826528             0.00605183932            0.000488142775           
       2.829169              0.0068251435            0.000542987532           
       2.831809             0.00660354834            0.000541365006           
       2.834449             0.00588393215            0.000514246452           
       2.837090             0.00577770191            0.000492176484           
       2.839730             0.00644621723            0.000517332965           
       2.842371             0.00694665292            0.000537813658           
       2.845011             0.00743132746            0.000560693161           
       2.847651             0.00645838212            0.000523343676           
       2.850292             0.00847539967            0.000605405903           
       2.852932             0.00681187867            0.000554578563           
       2.855573              0.0068708566            0.000540280666           
       2.858213             0.00651817724            0.000552607183           
       2.860853             0.00693443112            0.000530211424           
       2.863494             0.00717297234            0.000558322103           
       2.866134             0.00698903484            0.000572817859           
       2.868774             0.00693502243            0.000560782986           
       2.871415             0.00663810043            0.000557192712           
       2.874055              0.0070912143            0.000550484663           
       2.876696             0.00748294979            0.000580780902           
       2.879336             0.00696224243            0.000539934267           
       2.881976             0.00645698276            0.000536316723           
       2.884617              0.0076887762            0.000576646365           
       2.887257             0.00676712902            0.000543774765           
       2.889897             0.00749434828            0.000560469893           
       2.892538             0.00684803677            0.000586924477           
       2.895178             0.00668523333            0.000523906264           
       2.897819             0.00698889768            0.000546437512           
       2.900459             0.00615196367            0.000502702899           
       2.903099             0.00643430694            0.000508846734           
       2.905740             0.00664354651            0.000530431567           
       2.908380             0.00648492061             0.00053001538           
       2.911021             0.00793285537            0.000595737653           
       2.913661             0.00745725546            0.000577430422           
       2.916301              0.0069900389            0.000559582225           
       2.918942               0.007092108            0.000539147908           
       2.921582             0.00718650577            0.000567845812           
       2.924222             0.00681618919            0.000535771893           
       2.926863             0.00736900738            0.000580257825           
       2.929503             0.00676903863            0.000562723484           
       2.932144             0.00742273578            0.000565662137           
       2.934784             0.00751598156            0.000559870709           
       2.937424             0.00617465493            0.000512669314           
       2.940065             0.00662384357            0.000506513906           
       2.942705             0.00707409187            0.000522789053           
       2.945346             0.00718206347            0.000559029492           
       2.947986             0.00691668732            0.000559386489           
       2.950626             0.00608447287            0.000521701684           
       2.953267             0.00639954606            0.000526394084           
       2.955907             0.00786176154            0.000605239023           
       2.958547             0.00692751641            0.000536353805           
       2.961188             0.00605403759            0.000523101173           
       2.963828             0.00799917615            0.000588175194           
       2.966469             0.00687668781            0.000534984504           
       2.969109             0.00638065393            0.000522963858           
       2.971749             0.00727916085            0.000555088174           
       2.974390             0.00806925479            0.000574316737           
       2.977030             0.00808742047            0.000587812227           
       2.979670             0.00928562909            0.000612653413           
       2.982311             0.00824303196             0.00059827507           
       2.984951             0.00711281005            0.000528565377           
       2.987592             0.00674533447            0.000525040063           
       2.990232             0.00756749849            0.000578356621           
       2.992872             0.00920735237            0.000600913235           
       2.995513              0.0087771294            0.000573991726           
       2.998153              0.0106255406            0.000642156645           
       3.000794              0.0135231662             0.00070169817           
       3.003434              0.0128461187            0.000684939723           
       3.006074              0.0584864519             0.00144099982           
       3.008715               0.136023777             0.00212134897           
       3.011355               0.164144269              0.0022471916           
       3.013995              0.0776322985             0.00154963161           
       3.016636              0.0576425644             0.00130757519           
       3.019276                0.12780878             0.00191390289           
       3.021917               0.520708513             0.00371456603           
       3.024557                1.79179227             0.00677461395           
       3.027197                1.06379671             0.00508921986           
       3.029838               0.495029303              0.0035209053           
       3.032478               0.254203745             0.00252563868           
       3.035118              0.0724471801             0.00136640291           
       3.037759               0.105661326             0.00164803096           
       3.040399               0.163637342             0.00211557439           
       3.043040               0.587318218             0.00405709123           
       3.045680               0.368780567             0.00302472717           
       3.048320              0.0757183733             0.00140039322           
       3.050961               0.113881233             0.00174767701           
       3.053601               0.083163491             0.00143840906           
       3.056242              0.0550430538              0.0012441919           
       3.058882              0.0513622181             0.00128925112           
       3.061522              0.0404892891             0.00112307171           
       3.064163              0.0494715838              0.0012257779           
       3.066803               0.108422249             0.00191043664           
       3.069443               0.110124925             0.00201443974           
       3.072084              0.0468412563             0.00127928016           
       3.074724              0.0393834408             0.00131000395           
       3.077365              0.0823246916             0.00196062446           
       3.080005              0.0167515696            0.000889428604           
       3.082645              0.0133003894            0.000832570914           
       3.085286              0.0129529819            0.000828107892           
       3.087926             0.00989794695            0.000718314218           
       3.090566              0.0110884738            0.000744934905           
       3.093207              0.0113760046               0.000785168           
       3.095847             0.00975876427            0.000697028116           
       3.098488             0.00799977073            0.000699771369           
       3.101128             0.00842470213            0.000722734385           
       3.103768             0.00990163571            0.000768787753           
       3.106409             0.00710772514            0.000693217797           
       3.109049             0.00777240204            0.000695656911           
       3.111690             0.00823763592            0.000703879899           
       3.114330             0.00850339238             0.00073035726           
       3.116970             0.00878338146            0.000747982635           
       3.119611              0.0132008885            0.000976070032           
       3.122251              0.0222355734             0.00132510163           
       3.124891              0.0315999383             0.00159439066           
       3.127532              0.0226333716             0.00132006206           
       3.130172              0.0133243972             0.00103034758           
       3.132813             0.00861665653            0.000815698881           
       3.135453             0.00855312154            0.000805991783           
       3.138093             0.00731548332            0.000807668049           
       3.140734             0.00752143011            0.000755551757           
       3.143374             0.00891924785            0.000870114605           
       3.146014             0.00805938152            0.000890421484           
       3.148655             0.00780696676            0.000814664129           
       3.151295             0.00685392481            0.000813437629           
       3.153936             0.00485148388            0.000661082188           
       3.156576             0.00613370027            0.000733215438           
       3.159216              0.0067967307            0.000775688219           
       3.161857             0.00560846958            0.000701759433           
       3.164497             0.00829857132            0.000896915178           
       3.167138             0.00796846564            0.000908113176           
       3.169778             0.00597589412            0.000773450039           
       3.172418             0.00596154519            0.000764663113           
       3.175059              0.0059907956            0.000679567264           
       3.177699              0.0069125571            0.000773002174           
       3.180339             0.00704998459             0.00083640415           
       3.182980             0.00487595995            0.000719167442           
       3.185620             0.00681927699            0.000866151479           
       3.188261             0.00638368093            0.000852986344           
       3.190901             0.00625691721            0.000776671729           
       3.193541              0.0052976891            0.000750937125           
       3.196182             0.00508143306            0.000766444919           
       3.198822             0.00657776651            0.000872313537           
       3.201463             0.00625111423            0.000835727351           
       3.204103              0.0058526057            0.000803729966           
       3.206743             0.00518956274            0.000756763445           
       3.209384              0.0068247595            0.000937624376           
       3.212024             0.00603523543            0.000822042662           
       3.214664             0.00740506389             0.00103544381           
       3.217305             0.00533907565            0.000835754738           
       3.219945             0.00555261391            0.000877240848           
       3.222586             0.00565653919            0.000843340422           
       3.225226             0.00603538372            0.000966376345           
       3.227866             0.00749819634            0.000984495358           
       3.230507             0.00609032915            0.000919751941           
       3.233147              0.0083458008             0.00108536827           
       3.235787             0.00412348578            0.000780746757           
       3.238428             0.00738589922             0.00112759205           
       3.241068             0.00540934774            0.000902313501           
       3.243709             0.00738443124             0.00108920756           
       3.246349             0.00693095659            0.000961944034           
       3.248989             0.00537916627             0.00100064194           
       3.251630             0.00465496349            0.000896382444           
       3.254270             0.00287925562            0.000630058807           
       3.256911              0.0052403501            0.000927449028           
       3.259551             0.00590080964             0.00105953599           
       3.262191             0.00494859525            0.000991101231           
       3.264832             0.00691791657             0.00122438706           
       3.267472             0.00532596345             0.00100781955           
       3.270112             0.00529941894             0.00111099007           
       3.272753              0.0060489801             0.00108645542           
       3.275393             0.00447469266            0.000953456569           
       3.278034             0.00669777689             0.00116715649           
       3.280674             0.00624845936             0.00122330721           
       3.283314              0.0042028857            0.000897289252           
       3.285955              0.0046906535             0.00097805356           
       3.288595             0.00379336642            0.000978527413           
       3.291235             0.00559317026             0.00122145964           
       3.293876             0.00549929077             0.00122856971           
       3.296516             0.00580714974             0.00121201879           
       3.299157             0.00493362914             0.00110311183           
       3.301797             0.00735764731             0.00153663752           
       3.304437              0.0045727917             0.00104954615           
       3.307078             0.00466118396             0.00116726037           
       3.309718             0.00370300823             0.00107387135           
       3.312359             0.00717757373             0.00149543281           
       3.314999             0.00573159041              0.0013157321           
       3.317639             0.00527286461             0.00120693083           
       3.320280             0.00528627111             0.00128484683           
       3.322920             0.00384410193             0.00111409661           
       3.325560             0.00578623472             0.00136778671           
       3.328201             0.00574030777             0.00122695826           
       3.330841             0.00580175619             0.00150125623           
       3.333482             0.00486312299             0.00129918206           
       3.336122             0.00519432018             0.00134331027           
       3.338762             0.00556363111             0.00160594755           
       3.341403             0.00631743896              0.0016352027           
       3.344043             0.00697113923             0.00164915505           
       3.346683             0.00567068889             0.00151851326           
       3.349324             0.00412175582             0.00145557714           
       3.351964             0.00456164766             0.00161927281           
       3.354605             0.00680677224             0.00226216343           
       3.357245             0.00484005658             0.00172082356           
       3.359885             0.00509503234             0.00141309113           
       3.362526              0.0073110809             0.00211682875           
       3.365166             0.00601494877             0.00181097197           
       3.367807             0.00356998921             0.00178554261           
       3.370447             0.00489100494             0.00173364208           
       3.373087             0.00344856747             0.00155670747           
       3.375728             0.00358332338             0.00179089398           
       3.378368             0.00385727754             0.00275763777           
       3.381008             0.00219350819             0.00155040279           
       3.383649               0.005577036             0.00198317525           
       3.386289             0.00492312457             0.00220526266           
       3.388930             0.00744566886             0.00428978064           
       3.391570             0.00616457777             0.00276119693           
       3.394210           -2.64550014e-05                         0           
       3.396851             0.00492838997              0.0034949584           
       3.399491             0.00246011891             0.00246995829           
       3.402131             0.00490195404             0.00493279056           
       3.404772           -2.65315176e-05                         0           
       3.407412                       nan                       nan           
       3.410053           -2.65968649e-05                         0           
       3.412693                       nan                       nan           
       3.415333            -2.6647691e-05                         0           
