################################################################################
# EDF_DataBlockID                     0.Image.Psd
# EDF_BinarySize                      4366944
# EDF_HeaderSize                      2560
# ByteOrder                           LowByteFirst
# DataType                            FloatValue
# Dim_1                               1028
# Dim_2                               1062
# Image                               0
# HeaderID                            EH:000000:000000:000000
# Size                                4366944
# Center_1                            607.5200
# Center_2                            651.5500
# Comment                             Xenocs_Cell_Window - 20251028_20perc_iodine_1.23mg
# DDummy                              0.6
# Date                                2025-10-29T13:55:37
# Delta                               0
# Dummy                               -1.5
# ExposureTime                        360
# Gamma                               0
# Intensity1                          8.52879e-10
# PSize_1                             7.5e-05
# PSize_2                             7.5e-05
# Pressure                            0.032795
# SampleDistance                      0.450002
# SampleEnvKind                       large
# SampleEnvPN                         ElectroChemical cell
# SampleEnvSN                         1141
# Thickness                           0
# Wavelength                          1.541891e-10
# Wavelength                          1.54189e-10
# aux                                 0
# aux_dial                            0.002375
# beamx                               588.434
# beamx_dial                          588.434
# beamz                               657.808
# beamz_dial                          657.808
# det0x                               0
# det0x_dial                          6.36945
# det0xvd                             0
# det0xvd_dial                        0
# det0y                               450.002
# det0y_dial                          481.635
# det0z                               0
# det0z_dial                          1.23302
# det0zvd                             0
# det0zvd_dial                        0
# mag                                 1.818
# mag_dial                            1.818
# om                                  0.2499
# om_dial                             -0.610199
# phi                                 -0.0120535
# phi_dial                            0
# ry                                  0.599993
# ry_dial                             0.599993
# s1bot                               0.8
# s1bot_dial                          -1.66094
# s1hl                                0.8
# s1hl_dial                           -0.608437
# s1hr                                0.8
# s1hr_dial                           0.970938
# s1top                               0.8
# s1top_dial                          -0.461562
# s2bot                               0.45
# s2bot_dial                          1.36109
# s2hl                                0.45
# s2hl_dial                           -0.83375
# s2hr                                0.45
# s2hr_dial                           -0.118594
# s2top                               0.45
# s2top_dial                          1.44734
# w2theta                             32
# w2theta_dial                        32
# waxsch                              19.2605
# waxsch_dial                         -32.7355
# waxsh                               137.085
# waxsh_dial                          -43.5338
# waxsth                              26.0607
# waxsth_dial                         -19.4086
# waxsz                               67.0407
# waxsz_dial                          -23.7954
# wind                                65.9854
# wind_dial                           66.0041
# wpsi                                124
# wpsi_dial                           124
# wstod                               115
# wstod_dial                          115
# x                                   0
# x_dial                              1.00969
# z                                   0
# z_dial                              13.3172
# CountCutoff                         15302352
# DetectorModel                       Dectris EIGER2 Si 1M, S/N E-02-0362
# ThresholdSetting                    4023.88989258
# Saturation                          0
# FlatField                           Corrected
# BackgroundReductionExtra            0.02
# BackgroundCorrectionConstant        0.0026712
# Detector                            0
# Monitor                             0
# Pil_Roi0                            0
# SumForIntensity1                    3.07036e+08
# TransmittedFlux                     852879
# det                                 0
# mon                                 0
# pilai0                              3.07036e+08
# pilai1                              767801
# pilct0                              5.31814e+08
# pilct1                              767801
# pilroi0                             0
# pilroi1                             0
# sec                                 1
# title                               20251028_20perc_iodine_1.23mg_0_00214.edf
# usaxs0                              0
# Operation                           Azimuthal average I(q)
# Error_model                         ErrorModel.poisson
# Geometrical_correction              True
# Transmission_correction             True
# Thickness_correction                False
# Binning mode                        Uniform
# Binning factor                      1.0
# Psi                                 0.0
# Omega                               0.2499
# MaskInvalidPixels                   True
# DetectorEdge                        3
# MaskFiles                           ['20251028_20perc_iodine_1.23mg_0_00012_mask.edf']
################################################################################
    q(A⁻¹)                Intensity(a.u.)            Sigma_I(a.u.)            
       0.000340                373186.471                120.770411           
       0.001019                360496.047                72.6881306           
       0.001698                351021.503                50.7183533           
       0.002377                331043.278                44.0540372           
       0.003056                306997.194                35.8547405           
       0.003735                253196.546                28.7168054           
       0.004415                205084.326                25.8448238           
       0.005094                153323.516                19.3527408           
       0.005773                101186.393                 14.555459           
       0.006452                58927.4143                10.6427242           
       0.007131                32356.7688                 7.6398548           
       0.007810                16247.5457                5.37256052           
       0.008490                8150.44748                 3.3729562           
       0.009169                 3919.5721                2.31169197           
       0.009848                1210.29487                1.24197199           
       0.010527                467.115809               0.771576069           
       0.011206                117.695189               0.369640315           
       0.011885                 54.575373                0.23386563           
       0.012564                25.2981622               0.163472347           
       0.013244                17.0495134               0.125463033           
       0.013923                12.3117981                0.10833535           
       0.014602                9.55431733              0.0885103797           
       0.015281                7.58276187               0.080266986           
       0.015960                6.29137685              0.0725892025           
       0.016639                5.04463829              0.0613802725           
       0.017319                4.25076535              0.0554676976           
       0.017998                3.39089266              0.0473952653           
       0.018677                2.95431714              0.0458196369           
       0.019356                2.52958793               0.041893542           
       0.020035                2.19081636              0.0365778721           
       0.020714                1.92833946               0.034680027           
       0.021394                1.58920941              0.0297884633           
       0.022073                1.50557323              0.0301660078           
       0.022752                1.29086864              0.0267203072           
       0.023431                1.16433467              0.0246329617           
       0.024110                1.02480727              0.0240938124           
       0.024789               0.880415219              0.0207399829           
       0.025469               0.802792567              0.0204088421           
       0.026148                0.73898517              0.0183979524           
       0.026827               0.703534968              0.0182385091           
       0.027506               0.626035111              0.0174527498           
       0.028185               0.557134942              0.0157011343           
       0.028864                0.53242545              0.0152628818           
       0.029544               0.478236911              0.0140273117           
       0.030223               0.420698612              0.0133450987           
       0.030902               0.411882648              0.0133253685           
       0.031581               0.396195733              0.0124236556           
       0.032260               0.359243934              0.0120316956           
       0.032939                0.32096501              0.0109656948           
       0.033619                0.30179772              0.0107895057           
       0.034298               0.282137748               0.010152181           
       0.034977               0.256394082             0.00948774427           
       0.035656               0.239529237             0.00941310236           
       0.036335               0.217252764             0.00869464373           
       0.037014               0.202922731             0.00842806744           
       0.037693               0.195251131             0.00795295558           
       0.038373               0.180560285             0.00772296428           
       0.039052               0.168396573             0.00749002737           
       0.039731               0.140989327             0.00669374374           
       0.040410               0.156526347             0.00700564526           
       0.041089               0.132178687             0.00633692222           
       0.041768               0.129613249             0.00630790917           
       0.042448               0.138119188             0.00646107343           
       0.043127               0.130028176              0.0061209129           
       0.043806               0.131284405             0.00619626836           
       0.044485               0.113594175              0.0056452984           
       0.045164               0.128309788             0.00611807868           
       0.045843               0.105210808             0.00531360012           
       0.046523               0.111882646             0.00549841038           
       0.047202               0.101973368              0.0052859542           
       0.047881              0.0913744315             0.00490721957           
       0.048560               0.106015807             0.00533395095           
       0.049239              0.0917470895             0.00476444938           
       0.049918              0.0902939874             0.00481896825           
       0.050598              0.0875918236              0.0046751039           
       0.051277              0.0814756694             0.00449462189           
       0.051956              0.0767895098             0.00433605046           
       0.052635              0.0846294796             0.00445541722           
       0.053314              0.0752293935             0.00432351253           
       0.053993              0.0709026929             0.00408222034           
       0.054673              0.0712127871              0.0040000052           
       0.055352              0.0719006826             0.00407831555           
       0.056031              0.0601904081             0.00365304982           
       0.056710              0.0652708998             0.00389731767           
       0.057389              0.0721745802             0.00395198491           
       0.058068              0.0719168506             0.00398558808           
       0.058748               0.069041352             0.00395380874           
       0.059427              0.0673227698             0.00383818627           
       0.060106              0.0621586269             0.00372294719           
       0.060785               0.065140619             0.00369701068           
       0.061464              0.0619257081             0.00369151122           
       0.062143              0.0609357169             0.00362468649           
       0.062822              0.0541600286              0.0033771274           
       0.063502              0.0519186877             0.00330060264           
       0.064181              0.0558665577             0.00338763732           
       0.064860              0.0543624751             0.00339262178           
       0.065539              0.0527650294             0.00330972031           
       0.066218              0.0542616732             0.00328446599           
       0.066897               0.052499165             0.00325562299           
       0.067577               0.047894265             0.00313943943           
       0.068256              0.0418734189             0.00300759176           
       0.068935              0.0498183069             0.00322748672           
       0.069614              0.0442193687             0.00307098851           
       0.070293              0.0461550449             0.00316641499           
       0.070972              0.0446433217             0.00309132706           
       0.071652              0.0435024895             0.00305717023           
       0.072331              0.0424898842             0.00296753182           
       0.073010               0.042989749             0.00305313912           
       0.073689              0.0386036595             0.00287730094           
       0.074368              0.0395448606             0.00290686936           
       0.075047              0.0366345695             0.00276778772           
       0.075727              0.0361797426              0.0027335641           
       0.076406              0.0415623326             0.00298831485           
       0.077085              0.0366411615             0.00275339067           
       0.077764              0.0397360293             0.00285726817           
       0.078443               0.039083063             0.00285123923           
       0.079122              0.0353403164             0.00268523495           
       0.079802              0.0367018595             0.00276549534           
       0.080481              0.0319533721              0.0024933597           
       0.081160              0.0342660056             0.00263499546           
       0.081839              0.0329996192             0.00254444728           
       0.082518              0.0347618782             0.00261370288           
       0.083197              0.0359821712             0.00261786531           
       0.083876              0.0361014195             0.00257862775           
       0.084556              0.0333018443             0.00254550508           
       0.085235              0.0314222424             0.00242485375           
       0.085914              0.0321088697             0.00247501567           
       0.086593              0.0320707572             0.00245762643           
       0.087272              0.0282067794             0.00227224599           
       0.087951              0.0310728334             0.00243876598           
       0.088631              0.0319464273             0.00238858537           
       0.089310              0.0292471443             0.00233392103           
       0.089989              0.0322060815              0.0024205061           
       0.090668               0.031079318             0.00240403366           
       0.091347              0.0314273074              0.0024309899           
       0.092026              0.0304109056             0.00228574961           
       0.092706              0.0334243869             0.00248330464           
       0.093385              0.0306244521             0.00234051561           
       0.094064              0.0276904258             0.00225147731           
       0.094743              0.0296819063             0.00229551134           
       0.095422              0.0243138288             0.00205442441           
       0.096101              0.0291602722             0.00229621651           
       0.096781              0.0281315697             0.00222305751           
       0.097460              0.0273613235             0.00213260648           
       0.098139               0.029026702             0.00217964821           
       0.098818              0.0270862612             0.00207960386           
       0.099497              0.0288887777             0.00215209494           
       0.100176              0.0272583304             0.00203561677           
       0.100856              0.0246624954             0.00193502473           
       0.101535              0.0286562692             0.00208180203           
       0.102214              0.0262309613             0.00199177096           
       0.102893              0.0257527025             0.00195104385           
       0.103572               0.026993096             0.00196796937           
       0.104251               0.029962424             0.00208104698           
       0.104931              0.0248372297             0.00187747016           
       0.105610              0.0309275397             0.00210398565           
       0.106289              0.0242581067             0.00183235815           
       0.106968              0.0288494772             0.00200418528           
       0.107647              0.0250033952               0.001866934           
       0.108326              0.0217804819             0.00171915117           
       0.109005              0.0248216142             0.00182370355           
       0.109685              0.0242488693             0.00178232123           
       0.110364              0.0209342098             0.00167484033           
       0.111043              0.0226049021              0.0017334889           
       0.111722              0.0226129673             0.00171260634           
       0.112401              0.0234828092             0.00175008773           
       0.113080              0.0254811644             0.00180214155           
       0.113760              0.0258226069             0.00184447718           
       0.114439              0.0247212595             0.00177895822           
       0.115118              0.0261330132             0.00181525692           
       0.115797              0.0221033202             0.00168491089           
       0.116476              0.0218188987             0.00164897979           
       0.117155              0.0239690719             0.00174226106           
       0.117835              0.0240888875             0.00171188803           
       0.118514              0.0197116229             0.00156819542           
       0.119193              0.0212160405             0.00162695031           
       0.119872              0.0228965159             0.00166901845           
       0.120551               0.021635361             0.00161159517           
       0.121230              0.0198847781             0.00152947252           
       0.121910              0.0193556604             0.00152357026           
       0.122589               0.021026921             0.00158962111           
       0.123268              0.0206782416             0.00154584618           
       0.123947              0.0211721728             0.00157431591           
       0.124626              0.0211246192             0.00155331965           
       0.125305              0.0191650674             0.00148678294           
       0.125985              0.0211169858              0.0015485503           
       0.126664              0.0215686577             0.00155011622           
       0.127343              0.0205223096             0.00152957545           
       0.128022              0.0225439923             0.00159085034           
       0.128701              0.0217569776             0.00155469411           
       0.129380              0.0218619926             0.00153892289           
       0.130059              0.0224340412             0.00156254725           
       0.130739              0.0224551686             0.00157427628           
       0.131418              0.0211710649             0.00152432132           
       0.132097              0.0192328772             0.00143423902           
       0.132776              0.0223037869             0.00153752989           
       0.133455              0.0193425582             0.00144295332           
       0.134134              0.0212557023             0.00150781413           
       0.134814              0.0183098077             0.00138501319           
       0.135493               0.019408254             0.00143172389           
       0.136172              0.0191113085             0.00141000381           
       0.136851              0.0178660024             0.00137122039           
       0.137530              0.0205182115             0.00143456641           
       0.138209              0.0215438201              0.0014872412           
       0.138889               0.020257911             0.00144853019           
       0.139568              0.0210809621             0.00147702449           
       0.140247              0.0189485553             0.00139849534           
       0.140926              0.0189206365             0.00135750711           
       0.141605               0.017181708             0.00132648747           
       0.142284              0.0197542437             0.00139876043           
       0.142964              0.0174375293             0.00131920876           
       0.143643              0.0221543289             0.00148508523           
       0.144322              0.0209364253             0.00141347838           
       0.145001              0.0210330202             0.00144581545           
       0.145680              0.0203731761             0.00138929086           
       0.146359              0.0181532003             0.00131621291           
       0.147039              0.0204052241             0.00140695785           
       0.147718                0.01816559              0.0013055965           
       0.148397              0.0190125539             0.00135644193           
       0.149076              0.0196515935             0.00133626909           
       0.149755              0.0173839171             0.00127621366           
       0.150434              0.0189541361             0.00133314929           
       0.151114              0.0204489104             0.00137706069           
       0.151793              0.0185784014             0.00131258123           
       0.152472                0.01783251             0.00126324697           
       0.153151              0.0206337628              0.0013719863           
       0.153830              0.0202667825             0.00134982414           
       0.154509              0.0207925612             0.00136151673           
       0.155188              0.0189710395             0.00130003188           
       0.155868              0.0193459317             0.00130347208           
       0.156547              0.0195207355             0.00131775836           
       0.157226              0.0175531148             0.00121906163           
       0.157905              0.0183437589             0.00125668198           
       0.158584               0.015886061             0.00116734605           
       0.159263              0.0173077173             0.00122294363           
       0.159943              0.0193100926             0.00129271416           
       0.160622              0.0148193804             0.00111061148           
       0.161301              0.0178715784             0.00123594427           
       0.161980               0.018259773              0.0012280565           
       0.162659              0.0169656643             0.00119685975           
       0.163338              0.0187857703             0.00124915999           
       0.164018               0.017934142             0.00121411113           
       0.164697              0.0156874584             0.00115009952           
       0.165376              0.0187700669             0.00123054655           
       0.166055              0.0154439369             0.00112356687           
       0.166734              0.0178900235             0.00120385883           
       0.167413              0.0181526629             0.00121351246           
       0.168093               0.015951886             0.00114833582           
       0.168772              0.0179053077             0.00118103689           
       0.169451              0.0170498597             0.00117368255           
       0.170130              0.0176767613             0.00117937611           
       0.170809              0.0177878157             0.00119719382           
       0.171488              0.0166876418             0.00114900896           
       0.172168               0.018515313             0.00119866862           
       0.172847               0.017998855             0.00119735734           
       0.173526              0.0172974321             0.00115140278           
       0.174205              0.0185416759             0.00119758545           
       0.174884              0.0157483551             0.00109794476           
       0.175563              0.0181271368             0.00118298115           
       0.176243               0.016120446             0.00112674705           
       0.176922              0.0154494937             0.00107430415           
       0.177601              0.0162604868             0.00111425263           
       0.178280              0.0168374182             0.00112119072           
       0.178959              0.0168900268             0.00113197311           
       0.179638              0.0179980347             0.00116514787           
       0.180317              0.0163281814             0.00110169661           
       0.180997              0.0150604626             0.00106380773           
       0.181676              0.0175308544             0.00113548997           
       0.182355              0.0158451293             0.00108600091           
       0.183034              0.0174772366             0.00112225631           
       0.183713              0.0157606056             0.00107869637           
       0.184392              0.0166151218               0.001107218           
       0.185072               0.015676398             0.00106322848           
       0.185751              0.0173779418             0.00112255892           
       0.186430              0.0156969734             0.00105941327           
       0.187109              0.0179980278             0.00114704329           
       0.187788              0.0165389596             0.00109685551           
       0.188467               0.017791726             0.00112417578           
       0.189147               0.016200981             0.00108360696           
       0.189826              0.0175717623             0.00110856236           
       0.190505              0.0160262451             0.00107611636           
       0.191184              0.0166044653             0.00107957066           
       0.191863              0.0157461225             0.00105351178           
       0.192542              0.0161076838             0.00107558675           
       0.193222              0.0150571103              0.0010166147           
       0.193901              0.0154515066              0.0010436465           
       0.194580               0.019055101             0.00113870049           
       0.195259              0.0155386305             0.00104008689           
       0.195938              0.0156216985             0.00104535286           
       0.196617              0.0154510063             0.00102511435           
       0.197297              0.0155766072             0.00103347513           
       0.197976              0.0158903958             0.00102779915           
       0.198655              0.0150965404             0.00101273918           
       0.199334              0.0152153297              0.0010077497           
       0.200013              0.0140032428            0.000966240942           
       0.200692              0.0152657256             0.00101492582           
       0.201371              0.0148995658            0.000991387706           
       0.202051              0.0132207205            0.000936769488           
       0.202730              0.0156151136             0.00100790189           
       0.203409              0.0135181488             0.00094408239           
       0.204088              0.0160559962             0.00102775425           
       0.204767              0.0154401659             0.00100255457           
       0.205446              0.0160834565             0.00102522588           
       0.206126              0.0147509242            0.000968497818           
       0.206805              0.0183894451             0.00110119172           
       0.207484              0.0172247776             0.00104659065           
       0.208163               0.016159641             0.00101980655           
       0.208842              0.0163072278             0.00102167685           
       0.209521               0.015980638             0.00100298906           
       0.210201              0.0153263099             0.00099320177           
       0.210880              0.0156996887            0.000985501525           
       0.211559              0.0147740403            0.000970142398           
       0.212238               0.015440851             0.00098674721           
       0.212917              0.0171924229             0.00103734266           
       0.213596              0.0146317189              0.0009626352           
       0.214276              0.0167339498             0.00100802158           
       0.214955              0.0146110049            0.000961720442           
       0.215634               0.015781441            0.000992335123           
       0.216313              0.0145303167            0.000950188267           
       0.216992              0.0142116969            0.000939477351           
       0.217671              0.0154258967            0.000972157946           
       0.218351              0.0149307553            0.000965782511           
       0.219030              0.0154715133            0.000967597962           
       0.219709              0.0151324524            0.000962905829           
       0.220388               0.014655594            0.000946395321           
       0.221067              0.0159660265            0.000988583759           
       0.221746              0.0158746881             0.00098474222           
       0.222426              0.0149173192            0.000940320443           
       0.223105               0.016060864            0.000988989329           
       0.223784              0.0152031523            0.000952674685           
       0.224463              0.0155077502            0.000969833259           
       0.225142              0.0147608972            0.000931220414           
       0.225821               0.015843196            0.000968642117           
       0.226500              0.0155728736            0.000966449103           
       0.227180              0.0146315011            0.000922350775           
       0.227859              0.0167518839            0.000991351022           
       0.228538              0.0157103774             0.00095039893           
       0.229217              0.0159525585            0.000965276941           
       0.229896              0.0162050309            0.000972417038           
       0.230575              0.0153423386            0.000931096489           
       0.231255              0.0144484863            0.000917094388           
       0.231934              0.0147091187            0.000919007215           
       0.232613              0.0151149218            0.000935035047           
       0.233292              0.0127318783             0.00084987428           
       0.233971              0.0161788201            0.000957588997           
       0.234650               0.015633665            0.000952389641           
       0.235330              0.0144423015            0.000907388792           
       0.236009              0.0144935826             0.00090703896           
       0.236688              0.0142209864            0.000895253284           
       0.237367              0.0142440106            0.000897279043           
       0.238046              0.0148035154            0.000921173855           
       0.238725              0.0142356542            0.000889396563           
       0.239405              0.0122075531            0.000828716098           
       0.240084              0.0151632877            0.000917727809           
       0.240763               0.014345457            0.000901183254           
       0.241442              0.0140950327            0.000880696017           
       0.242121               0.014474457            0.000894155663           
       0.242800              0.0138877556            0.000879992985           
       0.243480              0.0138138662             0.00087353947           
       0.244159              0.0157007974            0.000931742392           
       0.244838              0.0135317522            0.000850758718           
       0.245517              0.0130923567            0.000848869529           
       0.246196              0.0135921381            0.000865337013           
       0.246875              0.0141853185            0.000871694623           
       0.247554              0.0156946073            0.000926214556           
       0.248234               0.014360616            0.000872543752           
       0.248913              0.0137564221            0.000863570572           
       0.249592              0.0143463926            0.000873514007           
       0.250271              0.0136533574            0.000849679905           
       0.250950              0.0137474817            0.000857825723           
       0.251629               0.013093928            0.000830071394           
       0.252309              0.0140325406            0.000861051573           
       0.252988              0.0144818864             0.00085966151           
       0.253667              0.0128372311            0.000818833139           
       0.254346              0.0129998479            0.000823833573           
       0.255025              0.0140179718            0.000853612085           
       0.255704              0.0128184488            0.000812534904           
       0.256384              0.0140362494             0.00084731475           
       0.257063              0.0135785135            0.000838135853           
       0.257742              0.0138900595            0.000841822899           
       0.258421              0.0136475325            0.000832835038           
       0.259100              0.0135931381            0.000832623124           
       0.259779              0.0127013225             0.00080416426           
       0.260459              0.0126501009            0.000804117134           
       0.261138              0.0127557399            0.000791687867           
       0.261817              0.0132642132            0.000823609226           
       0.262496              0.0123056873            0.000785512661           
       0.263175               0.014016813            0.000840149749           
       0.263854              0.0157769932            0.000887200506           
       0.264534              0.0125551472            0.000784685125           
       0.265213              0.0132299624            0.000818190492           
       0.265892              0.0131378065            0.000804889988           
       0.266571              0.0136187465            0.000817626417           
       0.267250              0.0122286858            0.000776081313           
       0.267929               0.012351689            0.000779174911           
       0.268609              0.0132489907            0.000811399228           
       0.269288              0.0129904779            0.000790097275           
       0.269967              0.0128793385            0.000795186428           
       0.270646              0.0137908587            0.000819287628           
       0.271325              0.0127111593            0.000787876352           
       0.272004              0.0120638071            0.000759900538           
       0.272683              0.0118745051            0.000754846431           
       0.273363              0.0116709634            0.000753121909           
       0.274042              0.0118934803            0.000755781926           
       0.274721              0.0118488536            0.000753915426           
       0.275400              0.0113490642             0.00073295861           
       0.276079              0.0122891974            0.000767043922           
       0.276758              0.0110105102            0.000735205122           
       0.277438              0.0116523436            0.000747840263           
       0.278117              0.0120179143            0.000773290863           
       0.278796              0.0124894013            0.000780312168           
       0.279475              0.0117449367            0.000769198814           
       0.280154              0.0110090272            0.000733998818           
       0.280833              0.0119917627             0.00077071795           
       0.281513              0.0122889645            0.000792450621           
       0.282192              0.0112234232            0.000744396111           
       0.282871              0.0108106854            0.000735685584           
       0.283550             0.00973267107            0.000701782941           
       0.284229              0.0113927598            0.000770430585           
       0.284908             0.00902974214            0.000693128161           
       0.285588              0.0108808039            0.000751953055           
       0.286267              0.0108891586            0.000764286397           
       0.286946              0.0104227191            0.000742875466           
       0.287625              0.0123087481            0.000821040917           
       0.288304              0.0124548046            0.000814843524           
       0.288983              0.0109165962            0.000772528659           
       0.289663             0.00874800276            0.000695600494           
       0.290342              0.0103538086            0.000752727018           
       0.291021             0.00968888747            0.000732078863           
       0.291700              0.0100141906            0.000734544335           
       0.292379              0.0105319475            0.000770541319           
       0.293058             0.00945253328            0.000727230561           
       0.293738             0.00973143972              0.0007316851           
       0.294417              0.0103992523            0.000765165719           
       0.295096              0.0109090677            0.000775081723           
       0.295775             0.00965183238            0.000740186143           
       0.296454             0.00901622571            0.000706145929           
       0.297133              0.0101684334            0.000753457735           
       0.297812              0.0108875129            0.000783554071           
       0.298492              0.0117926916            0.000817051418           
       0.299171              0.0094797722            0.000731171824           
       0.299850             0.00845067988            0.000685631133           
       0.300529             0.00873281803            0.000704833699           
       0.301208              0.0101318034            0.000761041516           
       0.301887             0.00913084701            0.000721612613           
       0.302567              0.0103338512            0.000763834235           
       0.303246              0.0100181486            0.000756986199           
       0.303925             0.00941349664            0.000743208135           
       0.304604              0.0101671732            0.000755709166           
       0.305283             0.00846845922            0.000699923511           
       0.305962             0.00842846303            0.000694050353           
       0.306642             0.00889230054            0.000722574297           
       0.307321             0.00911631152            0.000729282874           
       0.308000               0.010341967            0.000767554919           
       0.308679              0.0087806991            0.000722565053           
       0.309358             0.00811641966            0.000685298544           
       0.310037              0.0081584628            0.000688602013           
       0.310717             0.00930111388              0.0007345368           
       0.311396             0.00930573482            0.000739646742           
       0.312075             0.00870730449            0.000724542071           
       0.312754              0.0080581452            0.000683066375           
       0.313433             0.00940565304            0.000744390122           
       0.314112             0.00973782911            0.000757246889           
       0.314792             0.00910693745            0.000737477354           
       0.315471             0.00916527298            0.000730686325           
       0.316150             0.00904339115            0.000732528963           
       0.316829             0.00783286162            0.000686242853           
       0.317508             0.00778306321            0.000676381978           
       0.318187             0.00769545447            0.000681436637           
       0.318866             0.00841751454            0.000703088668           
       0.319546             0.00893251515            0.000735134294           
       0.320225             0.00818984888            0.000703924752           
       0.320904             0.00764603489            0.000669636135           
       0.321583             0.00678105313            0.000644517859           
       0.322262             0.00769525969            0.000676184932           
       0.322941             0.00887877149            0.000735629229           
       0.323621             0.00768268048            0.000680111952           
       0.324300             0.00733651129            0.000665133883           
       0.324979             0.00868983354            0.000725194414           
       0.325658              0.0075664647            0.000677926164           
       0.326337             0.00819865395            0.000706600059           
       0.327016             0.00833045066            0.000707735001           
       0.327696             0.00803231647            0.000702684364           
       0.328375             0.00776871968            0.000685226771           
       0.329054             0.00810494843               0.000703694           
       0.329733              0.0060216847            0.000608766668           
       0.330412             0.00626491149             0.00061585186           
       0.331091             0.00900944681            0.000751926031           
       0.331771              0.0078297628            0.000682603747           
       0.332450             0.00757961076            0.000684650494           
       0.333129              0.0076701661            0.000686951004           
       0.333808             0.00780683789            0.000693960239           
       0.334487             0.00756147611             0.00068620608           
       0.335166             0.00747572757            0.000672318414           
       0.335846             0.00767523204            0.000693201813           
       0.336525             0.00740471162            0.000674153645           
       0.337204             0.00733326106            0.000672652031           
       0.337883             0.00753151844             0.00068258769           
       0.338562             0.00674285286            0.000649445036           
       0.339241             0.00707583134             0.00066653404           
       0.339921             0.00756843746            0.000677784877           
       0.340600             0.00730450267             0.00067850681           
       0.341279             0.00651671649            0.000634012262           
       0.341958             0.00664832279            0.000649416949           
       0.342637             0.00671562467            0.000643475002           
       0.343316             0.00823482712            0.000714613611           
       0.343995             0.00665334077            0.000652856207           
       0.344675             0.00756950305            0.000683558585           
       0.345354             0.00600694792             0.00061294893           
       0.346033             0.00671501592            0.000646379083           
       0.346712              0.0074164542            0.000683634981           
       0.347391             0.00681893359            0.000659576414           
       0.348070             0.00543995884             0.00058075487           
       0.348750             0.00656806434            0.000647357493           
       0.349429             0.00639392174            0.000630472245           
       0.350108             0.00469791423            0.000546927458           
       0.350787             0.00560153518            0.000587069018           
       0.351466             0.00682695677            0.000660049694           
       0.352145             0.00581603159            0.000609728754           
       0.352825             0.00658188752            0.000645694231           
       0.353504             0.00499000247            0.000562076644           
       0.354183             0.00525301425            0.000570055117           
       0.354862             0.00597101883            0.000621889404           
       0.355541             0.00483465137            0.000552263344           
       0.356220             0.00588606544            0.000610514165           
       0.356900             0.00681454384             0.00066314308           
       0.357579             0.00616361925            0.000622943352           
       0.358258             0.00484941206            0.000560201133           
       0.358937             0.00572584073            0.000597277898           
       0.359616             0.00574259782            0.000606504011           
       0.360295             0.00635311732            0.000638461275           
       0.360975             0.00635445129            0.000635797468           
       0.361654             0.00527396002            0.000582212379           
       0.362333             0.00616894483            0.000626476151           
       0.363012             0.00444627627            0.000538703067           
       0.363691             0.00581670559             0.00060399853           
       0.364370             0.00495133253            0.000564173788           
       0.365050             0.00508127778              0.0005684708           
       0.365729              0.0051233328            0.000576261183           
       0.366408             0.00580240682            0.000614621462           
       0.367087             0.00516015436            0.000570312597           
       0.367766             0.00426930959            0.000529561455           
       0.368445             0.00494284466            0.000559688056           
       0.369124             0.00507810933             0.00057175101           
       0.369804             0.00500336724            0.000566619653           
       0.370483             0.00582537563            0.000614070845           
       0.371162             0.00485600557            0.000563906025           
       0.371841             0.00491929063             0.00055767277           
       0.372520             0.00422262908            0.000527034246           
       0.373199                0.00566827            0.000603326934           
       0.373879             0.00488567559            0.000566616316           
       0.374558             0.00491110534            0.000559799261           
       0.375237             0.00416289391            0.000516240071           
       0.375916             0.00552876423            0.000606330368           
       0.376595             0.00567432746            0.000602254919           
       0.377274             0.00430366123            0.000532891606           
       0.377954             0.00389440558            0.000498957938           
       0.378633             0.00479209181            0.000560479607           
       0.379312             0.00407875574             0.00051695346           
       0.379991              0.0048692357            0.000561906862           
       0.380670             0.00390872127             0.00051234238           
       0.381349             0.00431756066            0.000530739252           
       0.382029             0.00451127332            0.000550288048           
       0.382708               0.003982616             0.00050574989           
       0.383387             0.00390453809            0.000512116364           
       0.384066             0.00534578757            0.000593726514           
       0.384745              0.0043292221            0.000536400812           
       0.385424             0.00362335103            0.000492393427           
       0.386104             0.00400241349            0.000511790136           
       0.386783             0.00385060101            0.000512848136           
       0.387462             0.00396937031             0.00050774397           
       0.388141              0.0039697186             0.00051587613           
       0.388820             0.00377689206            0.000499553581           
       0.389499             0.00415510944            0.000526919214           
       0.390178              0.0043298417            0.000540026201           
       0.390858             0.00538959042            0.000597624278           
       0.391537             0.00440748898            0.000545956687           
       0.392216             0.00363033732            0.000489280753           
       0.392895             0.00318794253             0.00046004521           
       0.393574             0.00488436982            0.000568030548           
       0.394253              0.0038836382            0.000508787224           
       0.394933             0.00328589801            0.000473345768           
       0.395612             0.00417301241            0.000517933866           
       0.396291             0.00395883508            0.000514737777           
       0.396970             0.00420822971            0.000526001636           
       0.397649             0.00318094163            0.000458722773           
       0.398328             0.00459643544            0.000548996875           
       0.399008             0.00339957229            0.000471114595           
       0.399687             0.00402675563            0.000514727933           
       0.400366             0.00470241874            0.000554110624           
       0.401045             0.00396977291            0.000508155649           
       0.401724             0.00386183342            0.000502036174           
       0.402403             0.00339358687            0.000474285152           
       0.403083              0.0047661633            0.000553970383           
       0.403762             0.00410297756            0.000516520986           
       0.404441             0.00383540677            0.000502575575           
       0.405120             0.00412038723            0.000519204176           
       0.405799             0.00343715973            0.000472148049           
       0.406478             0.00395820098            0.000506685143           
       0.407158             0.00458047316            0.000544037186           
       0.407837             0.00406833192            0.000517247061           
       0.408516             0.00360749254            0.000482834086           
       0.409195             0.00440681258            0.000539704913           
       0.409874              0.0034760211            0.000485999779           
       0.410553              0.0036196482            0.000501272611           
       0.411233             0.00325142855            0.000472630478           
       0.411912             0.00375099233            0.000514835036           
       0.412591             0.00295063654            0.000459639856           
       0.413270             0.00279099714             0.00044490917           
       0.413949             0.00300366668            0.000466589753           
       0.414628             0.00313744755            0.000476011135           
       0.415307             0.00372953511            0.000524759657           
       0.415987             0.00236529678            0.000414459649           
       0.416666             0.00276789985            0.000445649854           
       0.417345             0.00413488656            0.000553787165           
       0.418024             0.00256428758            0.000436119508           
       0.418703             0.00284762012            0.000458737871           
       0.419382             0.00348700836            0.000505145656           
       0.420062             0.00225495205            0.000407355776           
       0.420741              0.0030278028            0.000474539636           
       0.421420             0.00273819247            0.000452985845           
       0.422099             0.00200006403            0.000387155901           
       0.422778              0.0032260596            0.000494362615           
       0.423457             0.00189489521            0.000381199333           
       0.424137             0.00212668577            0.000397260455           
       0.424816             0.00293177496            0.000476180804           
       0.425495             0.00292192561            0.000474930546           
       0.426174             0.00307275954            0.000487205132           
       0.426853             0.00264414745             0.00044920475           
       0.427532              0.0026198431            0.000450915896           
       0.428212             0.00250756826            0.000444060078           
       0.428891             0.00327784862            0.000506548307           
       0.429570             0.00311297672            0.000493982089           
       0.430249             0.00277331715            0.000463833726           
       0.430928             0.00259571114            0.000458548487           
       0.431607             0.00225414146            0.000419972259           
       0.432287             0.00332667131            0.000513930203           
       0.432966              0.0023413215            0.000434943738           
       0.433645             0.00186829971            0.000388936874           
       0.434324             0.00222593886            0.000421974927           
       0.435003             0.00240382036            0.000439260509           
       0.435682             0.00195874834            0.000399767849           
       0.436361             0.00139085694            0.000336417163           
       0.437041             0.00236224165            0.000437843701           
       0.437720             0.00197702707             0.00040248805           
       0.438399             0.00116984388            0.000311222523           
       0.439078             0.00204391364            0.000423304517           
       0.439757             0.00140327463            0.000348585438           
       0.440436             0.00266552884            0.000491256661           
       0.441116             0.00238372851            0.000472160108           
       0.441795             0.00136245714            0.000357392341           
       0.442474             0.00269550625            0.000504096061           
       0.443153             0.00323490474             0.00056511837           
       0.443832             0.00155618077            0.000392617922           
       0.444511             0.00202273589            0.000445603316           
       0.445191              0.0022469778            0.000481077699           
       0.445870             0.00255477919            0.000512984661           
       0.446549             0.00156422148            0.000405632283           
       0.447228             0.00186059474            0.000439894263           
       0.447907             0.00233555551            0.000498767023           
       0.448586             0.00246782636            0.000525032018           
       0.449266             0.00274845007             0.00054898337           
       0.449945             0.00261321172             0.00053312313           
       0.450624             0.00250139843            0.000529875982           
       0.451303             0.00139700286             0.00040112056           
       0.451982              0.0019594096            0.000472112818           
       0.452661             0.00168205116            0.000445573419           
       0.453341             0.00181466834            0.000464427152           
       0.454020             0.00229197964            0.000522739917           
       0.454699             0.00220558609            0.000517476707           
       0.455378             0.00247205145             0.00054813881           
       0.456057             0.00206477811            0.000509863983           
       0.456736            0.000793882428            0.000315165989           
       0.457416             0.00267044774            0.000578050289           
       0.458095             0.00121766006            0.000395983134           
       0.458774             0.00232545426            0.000554459062           
       0.459453             0.00166844373            0.000472015459           
       0.460132             0.00158399508            0.000449982416           
       0.460811             0.00117804317            0.000402538687           
       0.461490             0.00183026119            0.000496642598           
       0.462170              0.0013469661            0.000432703857           
       0.462849              0.0023497857            0.000575220374           
       0.463528              0.0016441895            0.000480051458           
       0.464207              0.0017147479            0.000499416678           
       0.464886             0.00124046638            0.000421463983           
       0.465565            0.000996049083            0.000381815105           
       0.466245             0.00100568717            0.000384848472           
       0.466924             0.00183965464            0.000532802202           
       0.467603              0.0012971443            0.000437906266           
       0.468282             0.00153487084            0.000487642106           
       0.468961             0.00169802747            0.000516275255           
       0.469640             0.00139951109            0.000470572152           
       0.470320             0.00141717128            0.000473859171           
       0.470999             0.00160465013            0.000508985416           
       0.471678             0.00165801549            0.000522352867           
       0.472357             0.00230173133            0.000617174172           
       0.473036             0.00203407909            0.000583844297           
       0.473715            0.000525447782            0.000299062602           
       0.474395             0.00107468435            0.000433610706           
       0.475074             0.00158498663            0.000526605009           
       0.475753            0.000706187185            0.000348472431           
       0.476432             0.00115231732            0.000461343552           
       0.477111            0.000402590578            0.000269393021           
       0.477790             0.00129899175            0.000486487833           
       0.478470            0.000977920511             0.00042768712           
       0.479149             0.00081831957            0.000395279972           
       0.479828           -0.000129593343                         0           
       0.480507             0.00103462961            0.000446991821           
       0.481186            0.000283238215            0.000239146677           
       0.481865             0.00103861722            0.000452277127           
       0.482545             0.00028287421            0.000238805961           
       0.483224            8.75143071e-05            0.000133735118           
       0.483903            0.000499922688            0.000324672067           
       0.484582             0.00031317672            0.000261152306           
       0.485261           -0.000114954086                         0           
       0.485940            0.000118197942            0.000162680196           
       0.486619           -0.000319996726                         0           
       0.487299            -9.8188216e-05                         0           
       0.487978            0.000116187785            0.000160408544           
       0.488657            0.000858240314            0.000453955334           
       0.489336            0.000376380099            0.000295352081           
       0.490015            0.000131538963             0.00017597606           
       0.490694           -0.000320112978                         0           
       0.491374           -7.52225676e-05                         0           
       0.492053           -6.24054638e-05                         0           
       0.492732           -0.000320171131                         0           
       0.493411           -0.000320190743                         0           
       0.494090            -5.8224177e-05                         0           
       0.494769           -4.95086577e-05                         0           
       0.495449           -0.000320249474                         0           
       0.496128           -0.000320269167                         0           
       0.496807           -0.000320288643                         0           
       0.497486           -0.000320308298                         0           
       0.498165           -3.63194187e-05                         0           
       0.498844           -3.37421358e-05                         0           
       0.499524           -0.000320367605                         0           
       0.500203           -0.000320387649                         0           
       0.500882           -0.000320407298                         0           
       0.501561           -1.97062843e-05                         0           
       0.502240           -0.000320446983                         0           
       0.502919           -0.000320466868                         0           
       0.503599           -0.000320486834                         0           
       0.504278           -0.000320507079                         0           
       0.504957           -0.000320527087                         0           
       0.505636           -0.000320546967                         0           
       0.506315            0.000338250632            0.000333487216           
       0.506994             0.00139130143             0.00068776967           
       0.507673           -0.000320606824                         0           
       0.508353           -0.000320627047                         0           
       0.509032           -0.000320647184                         0           
       0.509711           -0.000320667328                         0           
       0.510390            4.01867246e-05            0.000120548071           
       0.511069           -0.000320708183                         0           
       0.511748           -0.000320728494                         0           
       0.512428            -0.00032074895                         0           
       0.513107           -0.000320769092                         0           
       0.513786           -0.000320789296                         0           
       0.514465            5.13195387e-05             0.00013921898           
       0.515144             6.8745251e-05            0.000169911537           
       0.515823           -0.000320850728                         0           
       0.516503           -0.000320871267                         0           
       0.517182           -0.000320891804                         0           
       0.517861           -0.000320912291                         0           
       0.518540            0.000128723008            0.000240672443           
       0.519219           -0.000320953377                         0           
       0.519898           -0.000320974068                         0           
       0.520578           -0.000320994882                         0           
       0.521257           -0.000321015429                         0           
       0.521936            0.000143100932             0.00025669928           
       0.522615            0.000634965753            0.000553621883           
       0.523294           -0.000321077785                         0           
       0.523973           -0.000321098415                         0           
       0.524653           -0.000321118896                         0           
       0.525332           -0.000321139676                         0           
       0.526011           -0.000321160829                         0           
       0.526690           -0.000321181942                         0           
       0.527369           -0.000321202881                         0           
       0.528048           -0.000321223969                         0           
       0.528728            0.000738829998            0.000625639747           
       0.529407           -0.000321265997                         0           
       0.530086           -0.000321286854                         0           
       0.530765           -0.000321307741                         0           
       0.531444           -0.000321328853                         0           
       0.532123           -0.000321350339                         0           
       0.532802            0.000766578496            0.000646000346           
       0.533482            0.000258062228            0.000388233969           
       0.534161           -0.000321414159                         0           
       0.534840            0.000265792887            0.000395958922           
       0.535519           -0.000321456728                         0           
       0.536198           -0.000321477986                         0           
       0.536877            -0.00032149895                         0           
       0.537557           -0.000321520276                         0           
       0.538236           -0.000321541793                         0           
       0.538915           -0.000321563303                         0           
       0.539594              0.0003243336            0.000460661158           
       0.540273            0.000300865211            0.000432110071           
       0.540952            0.000336958136             0.00047214578           
       0.541632           -0.000321649353                         0           
       0.542311           -0.000321670726                         0           
       0.542990           -0.000321692339                         0           
       0.543669           -0.000321714132                         0           
       0.544348            0.000427542692            0.000563804825           
       0.545027            -0.00032175762                         0           
       0.545707           -0.000321779406                         0           
       0.546386           -0.000321801253                         0           
       0.547065           -0.000321822838                         0           
       0.547744           -0.000321844522                         0           
       0.548423            0.000394681359            0.000532051054           
       0.549102           -0.000321888389                         0           
       0.549782           -0.000321910222                         0           
       0.550461           -0.000321932315                         0           
       0.551140           -0.000321954541                         0           
       0.551819           -0.000321976505                         0           
       0.552498           -0.000321998656                         0           
       0.553177           -0.000322020427                         0           
       0.553856           -0.000322042276                         0           
       0.554536           -0.000322064197                         0           
       0.555215           -0.000322086452                         0           
       0.555894              0.0005330273            0.000672788471           
       0.556573             0.00162583224              0.0012524082           
       0.557252           -0.000322153305                         0           
       0.557931            -0.00032217552                         0           
       0.558611            0.000652188615            0.000790150311           
       0.559290            -0.00032222041                         0           
       0.559969           -0.000322242021                         0           
       0.560648           -0.000322264205                         0           
       0.561327           -0.000322286883                         0           
       0.562006           -0.000322309457                         0           
       0.562686           -0.000322332042                         0           
       0.563365           -0.000322354711                         0           
       0.564044           -0.000322377266                         0           
       0.564723           -0.000322399771                         0           
       0.565402           -0.000322421857                         0           
       0.566081           -0.000322444089                         0           
       0.566761           -0.000322466561                         0           
       0.567440           -0.000322489489                         0           
       0.568119           -0.000322512236                         0           
       0.568798           -0.000322535303                         0           
       0.569477           -0.000322558222                         0           
       0.570156           -0.000322581252                         0           
       0.570836           -0.000322604196                         0           
       0.571515           -0.000322626654                         0           
       0.572194           -0.000322649764                         0           
       0.572873           -0.000322672344                         0           
       0.573552           -0.000322694792                         0           
       0.574231           -0.000322717695                         0           
       0.574911           -0.000322741176                         0           
       0.575590           -0.000322764204                         0           
       0.576269           -0.000322787162                         0           
       0.576948           -0.000322810561                         0           
       0.577627           -0.000322833247                         0           
       0.578306           -0.000322856253                         0           
       0.578985           -0.000322879455                         0           
       0.579665           -0.000322902524                         0           
       0.580344           -0.000322925941                         0           
       0.581023           -0.000322949333                         0           
       0.581702           -0.000322972509                         0           
       0.582381           -0.000322995475                         0           
       0.583060           -0.000323019125                         0           
       0.583740           -0.000323042405                         0           
       0.584419           -0.000323065761                         0           
       0.585098           -0.000323089089                         0           
       0.585777             -0.0003231126                         0           
       0.586456           -0.000323136492                         0           
       0.587135            -0.00032315975                         0           
       0.587815           -0.000323182756                         0           
       0.588494            -0.00032320648                         0           
       0.589173           -0.000323230748                         0           
       0.589852           -0.000323253726                         0           
       0.590531           -0.000323277571                         0           
       0.591210           -0.000323300866                         0           
       0.591890            -0.00032332461                         0           
       0.592569           -0.000323347561                         0           
       0.593248           -0.000323372652                         0           
       0.593927           -0.000323396508                         0           
       0.594606           -0.000323420855                         0           
       0.595285           -0.000323443751                         0           
       0.595965           -0.000323465117                         0           
       0.596644              0.0361935822              0.0382234983           
