################################################################################
# EDF_DataBlockID                     0.Image.Psd
# EDF_BinarySize                      2105344
# EDF_HeaderSize                      2560
# ByteOrder                           LowByteFirst
# DataType                            FloatValue
# Dim_1                               512
# Dim_2                               1028
# Image                               0
# HeaderID                            EH:000000:000000:000000
# Size                                2105344
# Center_1                            304.9000
# Center_2                            588.7000
# Comment                             Xenocs_Cell_Window - 20251028_20perc_iodine_1.23mg
# DDummy                              0.6
# Date                                2025-11-02T06:42:02
# Delta                               21.910000
# Dummy                               -1.5
# ExposureTime                        360
# Gamma                               15.360000
# Intensity1                          8.81135e-10
# PSize_1                             7.5e-05
# PSize_2                             7.5e-05
# Pressure                            0.0326672
# SampleDistance                      0.115750
# SampleEnvKind                       large
# SampleEnvPN                         ElectroChemical cell
# SampleEnvSN                         1141
# Thickness                           0
# Wavelength                          1.541891e-10
# Wavelength                          1.54189e-10
# aux                                 0
# aux_dial                            0.002375
# beamx                               588.434
# beamx_dial                          588.434
# beamz                               657.808
# beamz_dial                          657.808
# det0x                               0
# det0x_dial                          6.36945
# det0xvd                             0
# det0xvd_dial                        0
# det0y                               450.002
# det0y_dial                          481.635
# det0z                               0
# det0z_dial                          1.23302
# det0zvd                             0
# det0zvd_dial                        0
# mag                                 1.818
# mag_dial                            1.818
# om                                  0.2499
# om_dial                             -0.610199
# phi                                 -0.0120535
# phi_dial                            0
# ry                                  0.599993
# ry_dial                             0.599993
# s1bot                               0.8
# s1bot_dial                          -1.66094
# s1hl                                0.8
# s1hl_dial                           -0.608437
# s1hr                                0.8
# s1hr_dial                           0.970938
# s1top                               0.8
# s1top_dial                          -0.461562
# s2bot                               0.45
# s2bot_dial                          1.36109
# s2hl                                0.45
# s2hl_dial                           -0.83375
# s2hr                                0.45
# s2hr_dial                           -0.118594
# s2top                               0.45
# s2top_dial                          1.44734
# w2theta                             32
# w2theta_dial                        32
# waxsch                              19.2605
# waxsch_dial                         -32.7355
# waxsh                               137.085
# waxsh_dial                          -43.5338
# waxsth                              26.0607
# waxsth_dial                         -19.4086
# waxsz                               67.0407
# waxsz_dial                          -23.7954
# wind                                65.9854
# wind_dial                           66.0041
# wpsi                                124
# wpsi_dial                           124
# wstod                               115
# wstod_dial                          115
# x                                   0
# x_dial                              1.00969
# z                                   0
# z_dial                              13.3172
# CountCutoff                         6807993
# DetectorModel                       Dectris EIGER2 Si 500K, S/N E-01-0554
# ThresholdSetting                    4023.88989258
# Saturation                          0
# FlatField                           Corrected
# BackgroundReductionExtra            0.02
# BackgroundCorrectionConstant        0.0026712
# Detector                            0
# Monitor                             0
# Pil_Roi0                            0
# SumForIntensity1                    3.17209e+08
# TransmittedFlux                     881135
# det                                 0
# mon                                 0
# pilai0                              3.17209e+08
# pilai1                              797811
# pilct0                              5.47755e+08
# pilct1                              797811
# pilroi0                             0
# pilroi1                             0
# sec                                 1
# title                               20251028_20perc_iodine_1.23mg_1_01021.edf
# usaxs0                              0
# Operation                           Azimuthal average I(q)
# Error_model                         ErrorModel.poisson
# Geometrical_correction              True
# Transmission_correction             True
# Thickness_correction                False
# Binning mode                        Uniform
# Binning factor                      1.0
# Psi                                 0.0
# Omega                               0.2499
# MaskInvalidPixels                   True
# DetectorEdge                        3
# MaskFiles                           ['WAXS_corrected.edf']
################################################################################
    q(A⁻¹)                Intensity(a.u.)            Sigma_I(a.u.)            
       0.693100             0.00802393857             0.00588283462           
       0.695741              0.0108457144             0.00558122645           
       0.698381             0.00414472338             0.00422630849           
       0.701021               0.034287879               0.017184461           
       0.703662             0.00829778672             0.00487962222           
       0.706302             0.00657020184             0.00336164289           
       0.708942              0.0027619581             0.00281314306           
       0.711583             0.00642877564             0.00371649201           
       0.714223              0.0256166013             0.00856504685           
       0.716864             0.00974062977             0.00345567818           
       0.719504             0.00854149742             0.00349200322           
       0.722144              0.0073022553             0.00299008099           
       0.724785             0.00769043996             0.00244771835           
       0.727425             0.00995384161             0.00376722241           
       0.730065             0.00703546846             0.00224033841           
       0.732706             0.00641925919             0.00179704236           
       0.735346              0.0118870473             0.00318769651           
       0.737987             0.00978650281              0.0020438584           
       0.740627              0.0112991966             0.00327678017           
       0.743267             0.00891368232             0.00194936992           
       0.745908              0.0100750446             0.00224852591           
       0.748548             0.00377992489             0.00126949334           
       0.751189             0.00931109588             0.00268476186           
       0.753829              0.0131097599             0.00292838279           
       0.756469             0.00976278433             0.00203774892           
       0.759110             0.00421619955              0.0014112207           
       0.761750             0.00736903239             0.00164968207           
       0.764390             0.00766355086             0.00176082222           
       0.767031             0.00906146974             0.00165805515           
       0.769671             0.00705727828             0.00182529435           
       0.772312             0.00791617405             0.00147171362           
       0.774952             0.00794734638             0.00199129878           
       0.777592             0.00659180888             0.00132094535           
       0.780233             0.00687850618             0.00162799619           
       0.782873              0.0095033481             0.00183015245           
       0.785513             0.00603274515             0.00155887113           
       0.788154             0.00336861066            0.000974455482           
       0.790794             0.00640415978             0.00160630018           
       0.793435             0.00846820764             0.00165936374           
       0.796075             0.00692730447             0.00144575315           
       0.798715             0.00756214441             0.00178503706           
       0.801356             0.00616281819              0.0013869166           
       0.803996             0.00772828777             0.00158341599           
       0.806637              0.0073648967             0.00123012412           
       0.809277             0.00867299456             0.00144487899           
       0.811917             0.00672713943             0.00118959684           
       0.814558             0.00586429344             0.00115436272           
       0.817198             0.00614814553             0.00112292707           
       0.819838             0.00605665004             0.00112799698           
       0.822479             0.00872268357             0.00158959268           
       0.825119              0.0075470143             0.00125846779           
       0.827760              0.0051795332              0.0010560699           
       0.830400             0.00740494633             0.00118845712           
       0.833040             0.00835822448             0.00132285802           
       0.835681               0.006788212             0.00135527993           
       0.838321             0.00628513778             0.00109456719           
       0.840961             0.00700114293             0.00125868046           
       0.843602             0.00663151217             0.00112337818           
       0.846242             0.00814854768             0.00124507359           
       0.848883             0.00757670042             0.00122863179           
       0.851523             0.00603465126              0.0010828773           
       0.854163             0.00835767639             0.00135523656           
       0.856804             0.00784158993             0.00118032154           
       0.859444             0.00647047106             0.00105052566           
       0.862085             0.00385376608            0.000844993607           
       0.864725             0.00757407193             0.00121232626           
       0.867365             0.00830909336             0.00117746367           
       0.870006             0.00769767967             0.00107996206           
       0.872646             0.00732660082              0.0011048558           
       0.875286             0.00657396111             0.00100686422           
       0.877927             0.00816014668             0.00108246199           
       0.880567             0.00694149238             0.00103432821           
       0.883208             0.00753175755             0.00106725764           
       0.885848             0.00585986691            0.000977435746           
       0.888488             0.00888296943              0.0011287498           
       0.891129             0.00842704457              0.0011288557           
       0.893769             0.00760847538             0.00102653402           
       0.896410             0.00876527882             0.00102727462           
       0.899050             0.00698402438             0.00100842104           
       0.901690              0.0074079032             0.00113130685           
       0.904331             0.00910221016             0.00111176221           
       0.906971             0.00784624263             0.00109810466           
       0.909611             0.00791769473             0.00100416796           
       0.912252             0.00814586611             0.00105203886           
       0.914892             0.00695844084             0.00106256272           
       0.917533             0.00651871415            0.000972901851           
       0.920173             0.00711252894            0.000942879173           
       0.922813              0.0086509744              0.0010912201           
       0.925454             0.00781054126             0.00093366448           
       0.928094              0.0068304281            0.000932129859           
       0.930734             0.00722640751             0.00103222014           
       0.933375             0.00793093405             0.00107073688           
       0.936015               0.005702267            0.000824579435           
       0.938656             0.00521323319            0.000845797457           
       0.941296              0.0077861262            0.000936771548           
       0.943936             0.00996334527             0.00103918247           
       0.946577             0.00792161067            0.000920481879           
       0.949217             0.00846632238            0.000875085454           
       0.951858             0.00702786599            0.000834600593           
       0.954498             0.00729315666            0.000984099698           
       0.957138             0.00665739714            0.000890738122           
       0.959779             0.00671934832            0.000882160811           
       0.962419               0.006837583            0.000883969041           
       0.965059             0.00848718186             0.00103579835           
       0.967700             0.00702453361            0.000965131116           
       0.970340             0.00747018367            0.000880720107           
       0.972981             0.00670105215            0.000759990015           
       0.975621             0.00850457749            0.000910823124           
       0.978261              0.0072901157            0.000801269989           
       0.980902             0.00678894681            0.000925140016           
       0.983542             0.00711075224            0.000838464276           
       0.986182             0.00944072059            0.000948526947           
       0.988823             0.00801629468            0.000848699493           
       0.991463             0.00951676418            0.000986583188           
       0.994104             0.00728182868            0.000841866861           
       0.996744             0.00923979323            0.000967277486           
       0.999384             0.00704094025            0.000755153564           
       1.002025             0.00667164995            0.000820450108           
       1.004665             0.00733003166            0.000785915542           
       1.007306             0.00783422073            0.000808336494           
       1.009946             0.00685834858            0.000771337881           
       1.012586             0.00699889133            0.000758895898           
       1.015227              0.0083509658            0.000890567395           
       1.017867             0.00772593037            0.000823243806           
       1.020507             0.00774352753            0.000798331123           
       1.023148             0.00813802299            0.000883091171           
       1.025788             0.00779490266            0.000792471081           
       1.028429              0.0090195566            0.000893085177           
       1.031069             0.00711578344            0.000746481438           
       1.033709             0.00891610602             0.00088823838           
       1.036350             0.00826777433            0.000768207737           
       1.038990             0.00769377727            0.000754679397           
       1.041630              0.0069226136            0.000746648593           
       1.044271             0.00712375642            0.000712324306           
       1.046911             0.00693769708            0.000739422706           
       1.049552             0.00836046186            0.000852803076           
       1.052192              0.0084877153            0.000784621305           
       1.054832             0.00833970877            0.000784825289           
       1.057473             0.00884541516            0.000796783935           
       1.060113             0.00785098802            0.000732098196           
       1.062754             0.00846472107            0.000776125133           
       1.065394             0.00883614166            0.000838374272           
       1.068034             0.00869149957            0.000756536543           
       1.070675             0.00819176376            0.000766137511           
       1.073315             0.00700598098             0.00071867633           
       1.075955             0.00944054876            0.000787581993           
       1.078596              0.0087456424            0.000805647789           
       1.081236             0.00815785746            0.000745084967           
       1.083877             0.00924204386            0.000785937991           
       1.086517             0.00904182299             0.00083357676           
       1.089157             0.00761398676            0.000793704158           
       1.091798             0.00837087407            0.000729620742           
       1.094438             0.00978316291            0.000786226052           
       1.097078             0.00884027604            0.000716814569           
       1.099719             0.00883127658            0.000774949799           
       1.102359              0.0084268853             0.00070893872           
       1.105000             0.00930678339            0.000833091029           
       1.107640              0.0102371812            0.000835438732           
       1.110280              0.0089609752            0.000713179123           
       1.112921             0.00930045159            0.000780485268           
       1.115561             0.00811206425            0.000692775064           
       1.118202             0.00825398502            0.000699467312           
       1.120842              0.0099406494            0.000806767428           
       1.123482             0.00797416615            0.000719420202           
       1.126123             0.00973126179            0.000762287931           
       1.128763             0.00920166066             0.00074633717           
       1.131403              0.0081393344            0.000676373733           
       1.134044             0.00851708163            0.000711957543           
       1.136684             0.00981875163            0.000815013249           
       1.139325             0.00912314736             0.00072370617           
       1.141965             0.00871443386            0.000711985487           
       1.144605             0.00761157425            0.000634469633           
       1.147246             0.00900947277            0.000706438609           
       1.149886             0.00913380494            0.000708771327           
       1.152527              0.0101912614            0.000759563828           
       1.155167             0.00952728401            0.000698529782           
       1.157807             0.00966144161            0.000754203072           
       1.160448             0.00939016222            0.000726085078           
       1.163088             0.00991094684            0.000711524595           
       1.165728             0.00914948281            0.000701911203           
       1.168369              0.0103062101            0.000751843146           
       1.171009             0.00913587095            0.000686967399           
       1.173650             0.00841646066            0.000676665716           
       1.176290             0.00877609626            0.000675234125           
       1.178930             0.00882697664            0.000663706549           
       1.181571             0.00975922905            0.000711714488           
       1.184211             0.00908241136              0.0006890262           
       1.186851             0.00959458819            0.000692384816           
       1.189492             0.00948106009            0.000683645907           
       1.192132              0.0089499067            0.000656767552           
       1.194773             0.00996614579            0.000696080494           
       1.197413             0.00879736448            0.000626616499           
       1.200053             0.00938369296            0.000663604511           
       1.202694             0.00998205034            0.000650858674           
       1.205334              0.0100436634            0.000703583334           
       1.207975             0.00914608899            0.000640878857           
       1.210615              0.0100490222            0.000741075649           
       1.213255             0.00905127047            0.000629810414           
       1.215896             0.00969822426            0.000663742636           
       1.218536             0.00992383463            0.000645597712           
       1.221176              0.0109167631            0.000736174338           
       1.223817              0.0106359162            0.000682112257           
       1.226457             0.00987451219            0.000670484398           
       1.229098              0.0103794136            0.000687378749           
       1.231738             0.00992617288            0.000675511595           
       1.234378             0.00887064368            0.000600047614           
       1.237019             0.00956061894            0.000641941063           
       1.239659             0.00938975814            0.000630637277           
       1.242299             0.00917957658             0.00061561705           
       1.244940             0.00994916372            0.000623318778           
       1.247580              0.0104802604            0.000659303552           
       1.250221               0.010807206            0.000665377386           
       1.252861              0.0103091578            0.000618674275           
       1.255501              0.0109937105            0.000693706868           
       1.258142              0.0111194742            0.000655579982           
       1.260782              0.0107998729            0.000660069404           
       1.263423              0.0101025116            0.000613433132           
       1.266063              0.0106095341            0.000644336046           
       1.268703              0.0103794747            0.000632023352           
       1.271344              0.0117171295            0.000694273664           
       1.273984              0.0111290647            0.000653488333           
       1.276624              0.0102356066            0.000614934411           
       1.279265              0.0107086596            0.000639429209           
       1.281905              0.0106571358            0.000640720125           
       1.284546              0.0103688785            0.000610880994           
       1.287186              0.0105208511            0.000603715237           
       1.289826              0.0118234804            0.000674506658           
       1.292467              0.0105311593              0.0006225569           
       1.295107              0.0107808357             0.00062363646           
       1.297747              0.0117991938            0.000624317768           
       1.300388              0.0107408843            0.000649346256           
       1.303028              0.0104354087            0.000611026138           
       1.305669              0.0102292064            0.000619363753           
       1.308309              0.0104049712            0.000618510786           
       1.310949              0.0106970983            0.000626503002           
       1.313590              0.0100077027            0.000587036492           
       1.316230              0.0108244867            0.000651512106           
       1.318871              0.0107808346            0.000636788225           
       1.321511              0.0110485796            0.000632698421           
       1.324151               0.010622635            0.000601990603           
       1.326792              0.0108732081            0.000612814663           
       1.329432              0.0118263074            0.000634598857           
       1.332072              0.0110126784            0.000603253919           
       1.334713              0.0116244768            0.000639678629           
       1.337353              0.0118976464            0.000620630766           
       1.339994              0.0112121892            0.000632250527           
       1.342634               0.011170615            0.000605163461           
       1.345274              0.0117335985            0.000641875328           
       1.347915              0.0107065062            0.000596207266           
       1.350555              0.0107633365            0.000608257066           
       1.353195              0.0108778129            0.000614486451           
       1.355836              0.0107539013            0.000601449518           
       1.358476              0.0118604526            0.000613414333           
       1.361117              0.0117977351            0.000612630086           
       1.363757              0.0111907007             0.00061487976           
       1.366397              0.0113719322            0.000601081631           
       1.369038              0.0117671309            0.000617525077           
       1.371678              0.0107092175            0.000583918769           
       1.374319              0.0116614849             0.00060408027           
       1.376959              0.0117374573            0.000599950096           
       1.379599              0.0116029479            0.000639270069           
       1.382240              0.0118182225            0.000606365906           
       1.384880              0.0109932421            0.000619456371           
       1.387520              0.0114713317            0.000600973461           
       1.390161              0.0107824333            0.000553376275           
       1.392801              0.0105286292            0.000569738254           
       1.395442               0.011563018            0.000605224348           
       1.398082              0.0114812797             0.00056475946           
       1.400722              0.0111812406            0.000583791642           
       1.403363              0.0108605243            0.000605634364           
       1.406003              0.0110767471            0.000572406762           
       1.408644              0.0122859366            0.000631515129           
       1.411284              0.0109495678            0.000564530489           
       1.413924              0.0109222398             0.00056173532           
       1.416565              0.0109917735            0.000561306984           
       1.419205              0.0107843626            0.000579982042           
       1.421845              0.0102358241            0.000564707595           
       1.424486              0.0117605204            0.000581838891           
       1.427126              0.0111706829             0.00058906612           
       1.429767              0.0117284634            0.000567908356           
       1.432407              0.0112034592            0.000580875015           
       1.435047               0.011677331            0.000556955858           
       1.437688              0.0111662946             0.00055277567           
       1.440328              0.0103484682             0.00054311674           
       1.442968              0.0113572649            0.000581721664           
       1.445609              0.0116406624            0.000570252195           
       1.448249              0.0109746082            0.000567716839           
       1.450890              0.0105748956            0.000553645016           
       1.453530              0.0096689733            0.000553858359           
       1.456170              0.0110401048            0.000574382459           
       1.458811              0.0121384066            0.000575908926           
       1.461451              0.0125405759            0.000586907256           
       1.464092               0.011764215            0.000572166351           
       1.466732              0.0109992345            0.000548496597           
       1.469372              0.0106908662            0.000528097984           
       1.472013              0.0110957488            0.000580249223           
       1.474653              0.0111610868            0.000572977734           
       1.477293              0.0111654236            0.000585167847           
       1.479934              0.0101104095            0.000531337774           
       1.482574               0.010233758            0.000517112133           
       1.485215              0.0114878169            0.000558084981           
       1.487855              0.0105185011            0.000541065837           
       1.490495              0.0114517146            0.000562478623           
       1.493136              0.0108184466            0.000539211592           
       1.495776              0.0119817982            0.000564879435           
       1.498416              0.0115034248            0.000571596731           
       1.501057              0.0111905909             0.00055134624           
       1.503697              0.0116567618            0.000550141613           
       1.506338              0.0119250957            0.000566605667           
       1.508978              0.0111045479             0.00054138759           
       1.511618              0.0107066273            0.000566150397           
       1.514259              0.0100743233            0.000530205981           
       1.516899              0.0104277732            0.000525222825           
       1.519540              0.0119647535            0.000571672283           
       1.522180              0.0110268281             0.00055362916           
       1.524820              0.0104296381            0.000535407952           
       1.527461              0.0115181859            0.000565437783           
       1.530101              0.0101735124            0.000526093538           
       1.532741              0.0108131869            0.000539233229           
       1.535382              0.0109106099            0.000550376945           
       1.538022              0.0111438108            0.000523995904           
       1.540663              0.0111346037            0.000563357083           
       1.543303             0.00967338611            0.000487556755           
       1.545943              0.0102462429            0.000531103064           
       1.548584              0.0114053618             0.00057039765           
       1.551224               0.010146361            0.000497427346           
       1.553864              0.0107870258            0.000541965534           
       1.556505              0.0113226592            0.000536393855           
       1.559145               0.010815698            0.000530670073           
       1.561786              0.0109697697            0.000534848055           
       1.564426              0.0101617205            0.000498760893           
       1.567066             0.00959660179            0.000507866091           
       1.569707              0.0108664585            0.000530716123           
       1.572347              0.0106748753            0.000543428016           
       1.574988              0.0106089543            0.000515652778           
       1.577628             0.00977159947            0.000516042569           
       1.580268             0.00965360324            0.000496962324           
       1.582909              0.0107200207            0.000555093479           
       1.585549             0.00926604912            0.000501095551           
       1.588189              0.0105699567            0.000523511518           
       1.590830             0.00993847072            0.000506995366           
       1.593470             0.00977416043            0.000522695176           
       1.596111             0.00875944644            0.000483097867           
       1.598751              0.0097119734            0.000492900531           
       1.601391             0.00945418265            0.000497044304           
       1.604032              0.0101251604            0.000525133187           
       1.606672             0.00941618087            0.000492029505           
       1.609312             0.00929514496            0.000510309531           
       1.611953             0.00998065957            0.000517456341           
       1.614593              0.0100443304            0.000509200161           
       1.617234             0.00849206196             0.00048523517           
       1.619874             0.00946200185              0.0005101739           
       1.622514             0.00927740178            0.000498281438           
       1.625155             0.00985521436            0.000516597866           
       1.627795             0.00947232289            0.000494053856           
       1.630436             0.00961705589            0.000495214592           
       1.633076             0.00916783235            0.000489851691           
       1.635716             0.00924412547            0.000484232376           
       1.638357              0.0101073606            0.000507671769           
       1.640997             0.00948987544            0.000506821151           
       1.643637             0.00876744255            0.000474049928           
       1.646278             0.00938862311            0.000505969296           
       1.648918               0.010100207            0.000526224984           
       1.651559              0.0095475518            0.000515596655           
       1.654199             0.00948645317            0.000499855929           
       1.656839             0.00842217194            0.000471147116           
       1.659480             0.00965897084             0.00052350367           
       1.662120             0.00870708235            0.000468129031           
       1.664761              0.0102442032            0.000527443549           
       1.667401             0.00963113077            0.000488805568           
       1.670041              0.0094404417            0.000491321415           
       1.672682             0.00950944043            0.000491086861           
       1.675322             0.00908865256            0.000477011494           
       1.677962             0.00893823375             0.00046782939           
       1.680603             0.00942216229            0.000481805017           
       1.683243             0.00952790084            0.000505486394           
       1.685884             0.00843305318            0.000479069586           
       1.688524               0.009190034            0.000490441903           
       1.691164             0.00805493884            0.000459260078           
       1.693805             0.00853895722            0.000478051706           
       1.696445             0.00998996632            0.000520075513           
       1.699085             0.00812569134            0.000453328232           
       1.701726             0.00896755848            0.000458767602           
       1.704366             0.00854873766            0.000471878147           
       1.707007             0.00886869992            0.000469914048           
       1.709647             0.00860263368            0.000468038092           
       1.712287             0.00865495393              0.0004735455           
       1.714928             0.00908648846            0.000489119382           
       1.717568             0.00847866629             0.00044507514           
       1.720209             0.00860849425            0.000469740965           
       1.722849             0.00922330183            0.000483726119           
       1.725489             0.00856202927            0.000466454408           
       1.728130             0.00838114722            0.000490446166           
       1.730770             0.00915045995            0.000486700505           
       1.733410             0.00890084094            0.000472470767           
       1.736051             0.00757361043            0.000438857293           
       1.738691             0.00883682156            0.000464435827           
       1.741332             0.00835448448            0.000464787492           
       1.743972             0.00834541267            0.000479711353           
       1.746612             0.00800439054            0.000451135258           
       1.749253             0.00806022405            0.000461646152           
       1.751893             0.00782173755            0.000451427203           
       1.754533             0.00851667611            0.000470614606           
       1.757174             0.00764443916            0.000441689468           
       1.759814             0.00832899558            0.000454053554           
       1.762455             0.00935507645            0.000490045797           
       1.765095             0.00885584773             0.00045610858           
       1.767735             0.00951424891            0.000487344304           
       1.770376             0.00857628338            0.000463918417           
       1.773016             0.00880476274            0.000466908815           
       1.775657             0.00901769697            0.000465722013           
       1.778297             0.00856572666            0.000449992428           
       1.780937             0.00806104514            0.000460762222           
       1.783578             0.00851211142            0.000461639079           
       1.786218             0.00888219628            0.000492132543           
       1.788858             0.00816687024            0.000448190879           
       1.791499             0.00846967415            0.000451298003           
       1.794139             0.00935239666            0.000470385187           
       1.796780             0.00878228532            0.000453625222           
       1.799420             0.00939562824            0.000466599892           
       1.802060             0.00836260778             0.00044375823           
       1.804701             0.00869676623            0.000434275459           
       1.807341             0.00892512933            0.000462281461           
       1.809981             0.00959527409            0.000480920685           
       1.812622             0.00918424689            0.000462036828           
       1.815262             0.00887030323            0.000463716819           
       1.817903             0.00845217191            0.000445948534           
       1.820543             0.00913894974            0.000470938101           
       1.823183             0.00808856252            0.000442805023           
       1.825824             0.00925925235             0.00045261782           
       1.828464             0.00817466276            0.000443376515           
       1.831105             0.00833165048             0.00043523805           
       1.833745             0.00820591238            0.000441166299           
       1.836385             0.00882574167            0.000470581692           
       1.839026             0.00767124498            0.000437338835           
       1.841666             0.00804565932            0.000446296234           
       1.844306             0.00829556767            0.000440809406           
       1.846947             0.00819410286            0.000441945611           
       1.849587             0.00842223803             0.00049476196           
       1.852228             0.00799712741            0.000435950339           
       1.854868             0.00923302726            0.000494824019           
       1.857508             0.00854796191            0.000471443292           
       1.860149             0.00730709773            0.000443803085           
       1.862789             0.00791250888            0.000445765388           
       1.865429             0.00949514373            0.000509726084           
       1.868070             0.00787863609            0.000458125328           
       1.870710             0.00809536612            0.000453677592           
       1.873351             0.00844775631            0.000469175933           
       1.875991             0.00748453913            0.000448826128           
       1.878631             0.00910167547            0.000485464962           
       1.881272             0.00809083813            0.000454646955           
       1.883912             0.00798982943            0.000470192455           
       1.886553             0.00835950072            0.000475569843           
       1.889193             0.00730923963            0.000443933113           
       1.891833             0.00789159891            0.000479056515           
       1.894474             0.00789206616            0.000474898473           
       1.897114             0.00869819085            0.000482448826           
       1.899754             0.00719153567            0.000440515241           
       1.902395              0.0079346326            0.000453668318           
       1.905035             0.00802014906            0.000483093227           
       1.907676             0.00784649515            0.000450360507           
       1.910316             0.00734724294            0.000447368575           
       1.912956             0.00879855779             0.00047879303           
       1.915597             0.00802749759            0.000459888576           
       1.918237              0.0081463211            0.000478455229           
       1.920878             0.00872017713            0.000492994074           
       1.923518             0.00775163827            0.000465007572           
       1.926158             0.00831343866            0.000475314568           
       1.928799             0.00774525745             0.00045347391           
       1.931439             0.00720240415            0.000448763363           
       1.934079             0.00746007526            0.000476119609           
       1.936720             0.00813651535            0.000460704791           
       1.939360             0.00726500833            0.000464439577           
       1.942001             0.00791443953            0.000444301718           
       1.944641             0.00821576326            0.000461597376           
       1.947281             0.00758118845            0.000439325435           
       1.949922              0.0076484305            0.000455792312           
       1.952562             0.00814564179            0.000485118366           
       1.955202             0.00785886336            0.000475921384           
       1.957843             0.00873787035            0.000488817823           
       1.960483             0.00715813269             0.00046255948           
       1.963124              0.0076779747            0.000469233115           
       1.965764             0.00759744896            0.000440173411           
       1.968404             0.00762196047            0.000436717268           
       1.971045             0.00817010072            0.000460988778           
       1.973685             0.00822033994            0.000485027226           
       1.976326             0.00783969061            0.000467154426           
       1.978966             0.00797055785            0.000475171125           
       1.981606             0.00866085367            0.000505650414           
       1.984247             0.00756779032            0.000469558665           
       1.986887             0.00661482647            0.000433741313           
       1.989527             0.00762362114            0.000460627395           
       1.992168             0.00862363037            0.000508320656           
       1.994808             0.00844089595            0.000500750424           
       1.997449             0.00868989861            0.000497648444           
       2.000089             0.00758204889            0.000463002493           
       2.002729             0.00746714807            0.000459756328           
       2.005370             0.00783875304             0.00046598896           
       2.008010              0.0081416073            0.000495631978           
       2.010650             0.00820849602            0.000501377272           
       2.013291             0.00814203827            0.000479092467           
       2.015931             0.00699454466            0.000440911688           
       2.018572             0.00743200118            0.000486120528           
       2.021212             0.00766149504            0.000484701141           
       2.023852             0.00765759969            0.000458630162           
       2.026493             0.00835923826            0.000500589861           
       2.029133             0.00788053652            0.000476263934           
       2.031774             0.00733255512            0.000482137284           
       2.034414             0.00781240922            0.000457919292           
       2.037054             0.00770148922            0.000466180979           
       2.039695             0.00770614793             0.00046280003           
       2.042335             0.00675845249            0.000450407528           
       2.044975             0.00691165373             0.00044996009           
       2.047616             0.00732012841            0.000461915145           
       2.050256             0.00754311534            0.000473335277           
       2.052897             0.00821481615            0.000503067182           
       2.055537             0.00722110667            0.000455841349           
       2.058177             0.00722326811            0.000446458401           
       2.060818             0.00744311326            0.000474763791           
       2.063458             0.00725570096             0.00048848258           
       2.066098             0.00698464933            0.000452113669           
       2.068739             0.00837973783            0.000502908863           
       2.071379             0.00794239534            0.000502378659           
       2.074020             0.00675386371            0.000453199142           
       2.076660             0.00775981525            0.000489705887           
       2.079300             0.00780417877            0.000503136764           
       2.081941             0.00696119119            0.000435087509           
       2.084581             0.00778012402            0.000485501246           
       2.087222             0.00695293106            0.000442629386           
       2.089862             0.00793786583            0.000515106329           
       2.092502             0.00773006926            0.000492743111           
       2.095143               0.007304136            0.000494613834           
       2.097783              0.0069714542            0.000467836811           
       2.100423             0.00717455312            0.000457323308           
       2.103064             0.00680682455             0.00046221341           
       2.105704             0.00863625543            0.000518055733           
       2.108345              0.0067983123            0.000441587558           
       2.110985             0.00762754957            0.000499585092           
       2.113625             0.00696534776            0.000481572593           
       2.116266             0.00689465719            0.000485920267           
       2.118906             0.00776614129            0.000480619207           
       2.121546             0.00771971758            0.000470031522           
       2.124187             0.00805888756            0.000504110061           
       2.126827             0.00761128269             0.00049537826           
       2.129468             0.00706275993            0.000478413206           
       2.132108             0.00730786088            0.000473467251           
       2.134748             0.00729988007              0.0004713727           
       2.137389             0.00652513779            0.000464931672           
       2.140029             0.00835723919            0.000471059087           
       2.142670             0.00849400748            0.000507533666           
       2.145310             0.00733137075            0.000458939929           
       2.147950             0.00807553577            0.000495768923           
       2.150591             0.00681024675            0.000450675257           
       2.153231             0.00759305603            0.000489836737           
       2.155871              0.0072563198            0.000462602827           
       2.158512             0.00848894971            0.000522083534           
       2.161152             0.00769360476            0.000481449111           
       2.163793             0.00729338517            0.000466649134           
       2.166433             0.00761971331            0.000489802613           
       2.169073             0.00747701729            0.000474392537           
       2.171714             0.00749907847            0.000471540339           
       2.174354             0.00726810305            0.000485068798           
       2.176995             0.00752053391            0.000491344249           
       2.179635             0.00759093731            0.000521635559           
       2.182275             0.00723894631            0.000480952463           
       2.184916             0.00713356298            0.000461143887           
       2.187556             0.00830497066            0.000492580741           
       2.190196             0.00714968139            0.000477597904           
       2.192837             0.00671877612            0.000460463048           
       2.195477             0.00739535204             0.00046057008           
       2.198118             0.00669896972            0.000449581345           
       2.200758              0.0084576812            0.000518264662           
       2.203398             0.00788113257            0.000503488718           
       2.206039             0.00676058445            0.000441335965           
       2.208679             0.00729644301              0.0004691635           
       2.211319             0.00765590165            0.000483352245           
       2.213960             0.00753309047            0.000485883714           
       2.216600             0.00720964586            0.000491726768           
       2.219241             0.00810194661            0.000498191936           
       2.221881             0.00683445753            0.000458507082           
       2.224521             0.00886229475            0.000528514071           
       2.227162             0.00823933083            0.000499396631           
       2.229802             0.00688805914            0.000470906584           
       2.232443             0.00682843169            0.000461468573           
       2.235083             0.00823368506            0.000521679738           
       2.237723             0.00746485676            0.000476681471           
       2.240364             0.00716877368            0.000478640528           
       2.243004              0.0075881143            0.000488509818           
       2.245644             0.00735656255            0.000485813143           
       2.248285             0.00672726195             0.00045526308           
       2.250925             0.00789522409            0.000496198764           
       2.253566             0.00719241173            0.000506313517           
       2.256206             0.00822716636            0.000530683582           
       2.258846             0.00803468059            0.000498886373           
       2.261487             0.00759379029            0.000509058228           
       2.264127             0.00774500953            0.000496511399           
       2.266767             0.00667838441            0.000473340093           
       2.269408             0.00765931055            0.000508987643           
       2.272048              0.0065194556            0.000466786127           
       2.274689             0.00783054952            0.000518314584           
       2.277329              0.0075425082            0.000478966627           
       2.279969             0.00714083054            0.000496071211           
       2.282610             0.00791294204            0.000507678281           
       2.285250             0.00725135303            0.000465160381           
       2.287891              0.0071867804            0.000496496659           
       2.290531               0.006588635            0.000481776998           
       2.293171             0.00719615311            0.000490453467           
       2.295812             0.00787121441            0.000510880408           
       2.298452             0.00742710484            0.000518954746           
       2.301092             0.00742766766            0.000482190994           
       2.303733             0.00782869811            0.000515011383           
       2.306373              0.0073083009            0.000505436332           
       2.309014             0.00803183063             0.00051952887           
       2.311654             0.00736638187            0.000519208429           
       2.314294             0.00686841734            0.000461897667           
       2.316935             0.00778203113            0.000493690158           
       2.319575             0.00821316996            0.000531408811           
       2.322215             0.00664204707            0.000498037902           
       2.324856             0.00770953626            0.000493319514           
       2.327496             0.00627960144            0.000473414707           
       2.330137             0.00679300241            0.000471177537           
       2.332777             0.00847145262            0.000542545554           
       2.335417             0.00742650106            0.000492819702           
       2.338058             0.00696886015            0.000491654641           
       2.340698             0.00775814294            0.000514673506           
       2.343339             0.00809544522            0.000537312211           
       2.345979             0.00722902794             0.00048036786           
       2.348619             0.00690189984            0.000486530502           
       2.351260             0.00762165943            0.000508291457           
       2.353900             0.00680404323            0.000478733297           
       2.356540             0.00744995472            0.000500230295           
       2.359181             0.00681861656            0.000471856166           
       2.361821             0.00701819055            0.000462422783           
       2.364462             0.00690120925            0.000479588736           
       2.367102             0.00669184581            0.000485320656           
       2.369742             0.00706780639            0.000524987228           
       2.372383             0.00710647718            0.000476673349           
       2.375023             0.00678838519            0.000489744058           
       2.377663             0.00662491721             0.00046259481           
       2.380304             0.00728718784            0.000493255733           
       2.382944             0.00632219257            0.000437599254           
       2.385585             0.00790676849            0.000521927406           
       2.388225             0.00788806254            0.000518860038           
       2.390865             0.00736230811            0.000496121217           
       2.393506             0.00710486999            0.000478175283           
       2.396146             0.00692851153            0.000510567526           
       2.398787             0.00686961134             0.00046852332           
       2.401427             0.00759409144            0.000475482016           
       2.404067             0.00694172045            0.000464740459           
       2.406708             0.00717689375            0.000466880575           
       2.409348             0.00769319685            0.000512721757           
       2.411988             0.00738506979            0.000492190987           
       2.414629             0.00715071697            0.000499402143           
       2.417269             0.00825759575            0.000542929639           
       2.419910             0.00598696947            0.000463368872           
       2.422550             0.00732199737            0.000490265459           
       2.425190             0.00704812078            0.000507033691           
       2.427831             0.00692048151            0.000499597316           
       2.430471             0.00635803095            0.000456211584           
       2.433112             0.00729364822            0.000475806154           
       2.435752             0.00726097731            0.000502422401           
       2.438392             0.00649555062            0.000458668282           
       2.441033              0.0067666058            0.000496134771           
       2.443673             0.00739894307             0.00051919777           
       2.446313             0.00594750358            0.000465905757           
       2.448954             0.00677653233            0.000473516581           
       2.451594             0.00714111955            0.000522657808           
       2.454235             0.00723939241            0.000493749176           
       2.456875               0.007870959            0.000538703282           
       2.459515             0.00840400096            0.000571055757           
       2.462156             0.00706022543            0.000494175049           
       2.464796             0.00690987548            0.000482577496           
       2.467436             0.00757067635            0.000522359095           
       2.470077             0.00877308049            0.000532970359           
       2.472717             0.00836103798            0.000522557765           
       2.475358             0.00768458551            0.000506196808           
       2.477998             0.00683016562            0.000469181406           
       2.480638             0.00763878199            0.000504994307           
       2.483279             0.00659818379            0.000490534057           
       2.485919             0.00758453738             0.00050684629           
       2.488560             0.00696610142            0.000484385837           
       2.491200             0.00629322691            0.000474088056           
       2.493840             0.00731741563            0.000540929417           
       2.496481             0.00715157572            0.000526016968           
       2.499121              0.0061418106            0.000474141554           
       2.501761             0.00717269527            0.000519179335           
       2.504402             0.00656793346            0.000489551917           
       2.507042             0.00646666021            0.000482164473           
       2.509683             0.00647985506            0.000475279462           
       2.512323              0.0074924333            0.000536747324           
       2.514963             0.00750119556            0.000530425987           
       2.517604             0.00730970581             0.00054332786           
       2.520244             0.00687799291            0.000494100178           
       2.522884             0.00846617858            0.000556025477           
       2.525525             0.00923178229            0.000587212538           
       2.528165             0.00795684096            0.000536660853           
       2.530806             0.00733840496            0.000524366641           
       2.533446              0.0066601646             0.00048888489           
       2.536086             0.00739283296            0.000510463835           
       2.538727             0.00733387638            0.000487755862           
       2.541367             0.00716439514            0.000486835842           
       2.544008             0.00709322879            0.000500279199           
       2.546648             0.00769502847             0.00053000715           
       2.549288             0.00787859561            0.000547219018           
       2.551929              0.0072835471            0.000517761499           
       2.554569             0.00679628499            0.000481845789           
       2.557209             0.00821223868            0.000534531518           
       2.559850             0.00709511971            0.000498442169           
       2.562490             0.00683604935            0.000505673916           
       2.565131             0.00672569399            0.000520056296           
       2.567771             0.00867371274            0.000569415118           
       2.570411             0.00676063108            0.000497273689           
       2.573052             0.00723752411              0.0005209932           
       2.575692             0.00800951148            0.000544756214           
       2.578332             0.00668333409            0.000499675414           
       2.580973             0.00682514732            0.000500144454           
       2.583613             0.00747767331            0.000511042034           
       2.586254             0.00690008535             0.00049022632           
       2.588894             0.00713937731             0.00051782868           
       2.591534             0.00748966394            0.000549042773           
       2.594175             0.00704708189            0.000522523692           
       2.596815             0.00717742008             0.00053044297           
       2.599456             0.00730049141            0.000507310891           
       2.602096             0.00729492784            0.000510976875           
       2.604736             0.00553934705            0.000455824755           
       2.607377             0.00745699054            0.000514934307           
       2.610017             0.00731225258            0.000500989173           
       2.612657             0.00737646085            0.000535211991           
       2.615298              0.0070692159            0.000511537193           
       2.617938             0.00673399382            0.000534082057           
       2.620579             0.00741400852            0.000537978381           
       2.623219             0.00727396949            0.000532113777           
       2.625859              0.0063970054            0.000485175315           
       2.628500             0.00730416819            0.000515038532           
       2.631140             0.00726673798            0.000521632687           
       2.633780             0.00722177693            0.000519564389           
       2.636421             0.00728808045            0.000534779615           
       2.639061             0.00667028816            0.000481623717           
       2.641702             0.00669048484            0.000493519063           
       2.644342             0.00748464373              0.0005242124           
       2.646982             0.00744553147            0.000515024574           
       2.649623             0.00734952331            0.000536233977           
       2.652263             0.00777703953            0.000546074319           
       2.654904             0.00779924569            0.000547403533           
       2.657544              0.0071473523            0.000493579335           
       2.660184             0.00626239604            0.000488944791           
       2.662825             0.00694316488            0.000526779373           
       2.665465             0.00706230338            0.000513834958           
       2.668105             0.00659738183            0.000523471063           
       2.670746             0.00746764324            0.000514482229           
       2.673386             0.00827519188            0.000558148053           
       2.676027             0.00752911635            0.000523848527           
       2.678667              0.0101762682            0.000594246403           
       2.681307              0.0111433565            0.000610995484           
       2.683948              0.0159435918            0.000750905543           
       2.686588              0.0121024907            0.000643379257           
       2.689229              0.0101167183            0.000574797121           
       2.691869              0.0100603383            0.000605808242           
       2.694509             0.00849012661            0.000556832457           
       2.697150              0.0078736901            0.000527536896           
       2.699790             0.00799366542            0.000557244243           
       2.702430             0.00760003376            0.000519378117           
       2.705071             0.00714256885            0.000520276575           
       2.707711              0.0073603598             0.00051260832           
       2.710352             0.00660515031            0.000513095763           
       2.712992             0.00744314387            0.000554743296           
       2.715632             0.00604802649            0.000463954955           
       2.718273             0.00782933157            0.000547071675           
       2.720913             0.00660167787              0.0005009237           
       2.723553              0.0058588459            0.000475066739           
       2.726194             0.00749491878            0.000561675279           
       2.728834             0.00822195327            0.000588563134           
       2.731475             0.00752976201             0.00051982435           
       2.734115             0.00715858827            0.000522580592           
       2.736755             0.00620552474            0.000490556236           
       2.739396             0.00634774166            0.000493271035           
       2.742036             0.00688920176            0.000537806473           
       2.744677             0.00694734066            0.000524017764           
       2.747317             0.00618143836            0.000490764965           
       2.749957             0.00713697422            0.000531034825           
       2.752598             0.00770511363            0.000557754747           
       2.755238             0.00752328226            0.000561083504           
       2.757878             0.00805939734            0.000575653657           
       2.760519             0.00755632748            0.000551487734           
       2.763159             0.00985154544            0.000623405764           
       2.765800             0.00906304752            0.000569825069           
       2.768440             0.00847191518            0.000554987107           
       2.771080             0.00768111214            0.000532861327           
       2.773721             0.00759042386            0.000543370749           
       2.776361             0.00682651548            0.000522412247           
       2.779001             0.00847754089            0.000602894543           
       2.781642             0.00646653806            0.000522672844           
       2.784282             0.00724120053            0.000562189509           
       2.786923             0.00702860407            0.000558752043           
       2.789563             0.00740172772            0.000552243216           
       2.792203             0.00642171339            0.000491385695           
       2.794844             0.00749549332            0.000581836876           
       2.797484             0.00675060266            0.000521113281           
       2.800125             0.00741780922            0.000574391654           
       2.802765              0.0078041073            0.000579022661           
       2.805405             0.00674522839            0.000540131754           
       2.808046              0.0068779324            0.000555007295           
       2.810686             0.00623412418            0.000485532177           
       2.813326             0.00586527021            0.000489186515           
       2.815967             0.00702763277            0.000550694766           
       2.818607             0.00734643312            0.000537301235           
       2.821248             0.00730430164            0.000524635474           
       2.823888              0.0071895129            0.000540288837           
       2.826528             0.00626858018            0.000488582966           
       2.829169             0.00659737929            0.000525013231           
       2.831809             0.00682598658            0.000541295943           
       2.834449             0.00637672944            0.000526486245           
       2.837090             0.00636158997            0.000507898218           
       2.839730             0.00670510798            0.000518885017           
       2.842371             0.00701065565            0.000531341703           
       2.845011             0.00714881854             0.00054082873           
       2.847651              0.0066609478            0.000522689391           
       2.850292             0.00740053483            0.000556350738           
       2.852932             0.00715617504            0.000559011396           
       2.855573             0.00594837723            0.000494383302           
       2.858213             0.00734941114            0.000577072359           
       2.860853              0.0072510031            0.000533203835           
       2.863494             0.00629802784            0.000514503211           
       2.866134             0.00657812333            0.000546524342           
       2.868774             0.00761767449            0.000578006414           
       2.871415             0.00799748104             0.00060146545           
       2.874055             0.00620577542            0.000506446418           
       2.876696             0.00645836505            0.000530625069           
       2.879336             0.00767192148            0.000557402552           
       2.881976             0.00754041131            0.000569973418           
       2.884617             0.00714249126            0.000546583309           
       2.887257             0.00722011861            0.000552382034           
       2.889897             0.00758278093            0.000554434395           
       2.892538             0.00764365555            0.000609818074           
       2.895178             0.00683018289            0.000520789273           
       2.897819              0.0058583707            0.000492011379           
       2.900459             0.00807770771            0.000566498982           
       2.903099             0.00746157617            0.000538892266           
       2.905740             0.00655089734            0.000518000676           
       2.908380             0.00653215432            0.000523136372           
       2.911021             0.00719144465            0.000557826204           
       2.913661             0.00673960877            0.000539856148           
       2.916301             0.00741017716            0.000566616175           
       2.918942             0.00705351902            0.000528778432           
       2.921582             0.00698723112            0.000550648741           
       2.924222             0.00733178217            0.000546467632           
       2.926863             0.00681373036            0.000548731055           
       2.929503             0.00678304487            0.000553980459           
       2.932144             0.00666583446            0.000527172721           
       2.934784             0.00734603806            0.000544342244           
       2.937424             0.00705175452            0.000538803153           
       2.940065             0.00678132142            0.000504015697           
       2.942705             0.00755398274            0.000531287611           
       2.945346               0.006991478            0.000542431818           
       2.947986             0.00700756891            0.000553728845           
       2.950626             0.00732485921            0.000562938508           
       2.953267              0.0064490644            0.000519679194           
       2.955907             0.00703387473            0.000563008382           
       2.958547             0.00742675444            0.000546150926           
       2.961188             0.00663740651            0.000538657739           
       2.963828             0.00907853605            0.000616229583           
       2.966469             0.00793573874            0.000565191716           
       2.969109             0.00738815995            0.000553423738           
       2.971749             0.00654846029            0.000517775473           
       2.974390             0.00723669926            0.000534879039           
       2.977030             0.00756702535            0.000559173725           
       2.979670             0.00961344101            0.000613054638           
       2.982311              0.0069597383            0.000540635335           
       2.984951             0.00753436666            0.000534997854           
       2.987592             0.00628121192            0.000498267981           
       2.990232             0.00714436664            0.000552652278           
       2.992872             0.00765732567             0.00053893142           
       2.995513             0.00810349117            0.000542395429           
       2.998153               0.011670284            0.000661845672           
       3.000794              0.0111245506            0.000625897113           
       3.003434              0.0127093884            0.000670006894           
       3.006074              0.0446791616             0.00123862361           
       3.008715               0.116788423             0.00193310371           
       3.011355                0.18004229             0.00231454198           
       3.013995              0.0922853602             0.00166159129           
       3.016636              0.0605423458             0.00131787799           
       3.019276               0.125680884             0.00186648595           
       3.021917               0.466420509             0.00345740393           
       3.024557                1.63534137             0.00636495727           
       3.027197                 1.1666947             0.00524144535           
       3.029838               0.508303092             0.00350873706           
       3.032478               0.266568671             0.00254352119           
       3.035118              0.0693613964             0.00131485392           
       3.037759              0.0930058041             0.00152059277           
       3.040399               0.133506729             0.00187927021           
       3.043040                0.51281948             0.00372830002           
       3.045680               0.409839792             0.00313588273           
       3.048320              0.0855855654             0.00146419925           
       3.050961               0.106337014             0.00166084033           
       3.053601              0.0860318518             0.00143878615           
       3.056242                  0.055201             0.00122534996           
       3.058882              0.0469173279             0.00121180524           
       3.061522              0.0358778574             0.00103968366           
       3.064163               0.040267504             0.00108758145           
       3.066803               0.101618273             0.00181890449           
       3.069443               0.102792505              0.0019140036           
       3.072084              0.0544319601             0.00135621624           
       3.074724              0.0416372486             0.00132466892           
       3.077365              0.0827232814             0.00193283061           
       3.080005              0.0183062617            0.000914394762           
       3.082645              0.0106420847            0.000732407814           
       3.085286              0.0144251527            0.000859434556           
       3.087926             0.00857596293             0.00065755776           
       3.090566               0.010868348            0.000725295135           
       3.093207             0.00973319717            0.000714243063           
       3.095847             0.00855740019            0.000641910326           
       3.098488             0.00852252078            0.000710316645           
       3.101128              0.0092438504            0.000744523572           
       3.103768             0.00968649704            0.000747802508           
       3.106409             0.00948465928            0.000787527661           
       3.109049             0.00830763292            0.000707304925           
       3.111690             0.00853657334            0.000704676214           
       3.114330             0.00786664699            0.000690851381           
       3.116970             0.00833146921            0.000716427088           
       3.119611              0.0119973074            0.000915106942           
       3.122251               0.020972085             0.00126559976           
       3.124891              0.0334864775             0.00161412408           
       3.127532              0.0221044847             0.00128295221           
       3.130172              0.0153376906             0.00108715261           
       3.132813             0.00959410787            0.000846473433           
       3.135453             0.00843082631             0.00078696229           
       3.138093             0.00697023563            0.000775328375           
       3.140734             0.00630883841            0.000680517452           
       3.143374             0.00836459869            0.000828677324           
       3.146014              0.0071037487            0.000822127405           
       3.148655             0.00598407717            0.000701433623           
       3.151295             0.00596882467            0.000746533945           
       3.153936             0.00749685358            0.000808180247           
       3.156576              0.0049017398            0.000644608474           
       3.159216             0.00623008566            0.000730356219           
       3.161857             0.00550514557            0.000683755821           
       3.164497             0.00758618547            0.000843358049           
       3.167138             0.00768852767            0.000877252821           
       3.169778             0.00550670433            0.000730175499           
       3.172418             0.00730867152            0.000832646192           
       3.175059             0.00699751159            0.000722291609           
       3.177699             0.00625081145            0.000722903133           
       3.180339             0.00537401189            0.000718161244           
       3.182980             0.00615265716            0.000794477987           
       3.185620             0.00584919143            0.000788902189           
       3.188261             0.00593670039            0.000808964784           
       3.190901              0.0056734663            0.000727330987           
       3.193541             0.00544480682            0.000748690181           
       3.196182             0.00423926149            0.000688467599           
       3.198822             0.00614610229             0.00082924686           
       3.201463             0.00626968073            0.000823112446           
       3.204103             0.00565395126            0.000776894623           
       3.206743             0.00588274362             0.00079238324           
       3.209384             0.00546908844              0.0008254547           
       3.212024             0.00539229883            0.000764160848           
       3.214664             0.00614728352            0.000927799879           
       3.217305             0.00655835259            0.000910948339           
       3.219945             0.00522212372            0.000836650826           
       3.222586             0.00607249831            0.000859333566           
       3.225226             0.00568665781            0.000922513973           
       3.227866              0.0065147304            0.000902472653           
       3.230507             0.00655125855            0.000938130507           
       3.233147             0.00506559568            0.000831589378           
       3.235787             0.00655763914             0.00096828288           
       3.238428             0.00565521625            0.000970343455           
       3.241068             0.00638378349            0.000963994681           
       3.243709             0.00464807066            0.000849843663           
       3.246349             0.00646995882            0.000914017545           
       3.248989             0.00504207901            0.000952744824           
       3.251630             0.00399804112             0.00081697617           
       3.254270             0.00545567068            0.000852934354           
       3.256911             0.00538659878            0.000924736013           
       3.259551             0.00403609906            0.000861770014           
       3.262191             0.00613671979             0.00108541484           
       3.264832             0.00521961022             0.00104592529           
       3.267472             0.00570114269             0.00102545168           
       3.270112             0.00471333676             0.00103041184           
       3.272753             0.00812272959             0.00123814751           
       3.275393             0.00608234239             0.00109321429           
       3.278034             0.00629378023             0.00111267952           
       3.280674             0.00463492014             0.00103614551           
       3.283314             0.00574842042             0.00103200903           
       3.285955             0.00575427756             0.00106534905           
       3.288595             0.00564119532             0.00117353683           
       3.291235             0.00412798871             0.00103197674           
       3.293876             0.00557035934             0.00121601414           
       3.296516             0.00439994981             0.00103753381           
       3.299157             0.00404061901            0.000981772364           
       3.301797             0.00901254067             0.00167253851           
       3.304437             0.00607187557               0.001189386           
       3.307078             0.00563823807             0.00126253051           
       3.309718              0.0048119795             0.00120389153           
       3.312359             0.00301316345             0.00095288387           
       3.314999             0.00612603197             0.00133773498           
       3.317639             0.00482448669             0.00113536418           
       3.320280             0.00451142763              0.0011673046           
       3.322920             0.00374814126             0.00108189208           
       3.325560              0.0036812505             0.00107292311           
       3.328201              0.0065969535             0.00129355372           
       3.330841             0.00487218186             0.00135296758           
       3.333482             0.00673278327             0.00150335056           
       3.336122             0.00332759611             0.00105737208           
       3.338762             0.00581068539             0.00161404795           
       3.341403              0.0040866548             0.00129340818           
       3.344043             0.00672401682             0.00159284884           
       3.346683             0.00471716955             0.00136204663           
       3.349324             0.00295834964             0.00121274476           
       3.351964              0.0076802976             0.00206632551           
       3.354605             0.00875471801             0.00252304506           
       3.357245             0.00414203237             0.00156555535           
       3.359885             0.00645930798             0.00156473304           
       3.362526             0.00591189958             0.00187201366           
       3.365166             0.00744449936             0.00198136309           
       3.367807             0.00258596424             0.00149450916           
       3.370447              0.0101055226             0.00245070105           
       3.373087             0.00944431731             0.00253351505           
       3.375728             0.00344366211             0.00172658395           
       3.378368             0.00970427197               0.004301588           
       3.381008             0.00317529846             0.00183450012           
       3.383649              0.0075125493             0.00226362038           
       3.386289              0.0066887251             0.00252791311           
       3.388930             0.00232688272             0.00235841936           
       3.391570             0.00698707703             0.00289097301           
       3.394210             0.00383215533              0.0027094915           
       3.396851             0.00471885772             0.00336324479           
       3.399491             0.00478431446             0.00338744292           
       3.402131           -2.56480085e-05                         0           
       3.404772           -2.56603874e-05                         0           
       3.407412                       nan                       nan           
       3.410053           -2.57235891e-05                         0           
       3.412693                       nan                       nan           
       3.415333           -2.57727464e-05                         0           
