################################################################################
# EDF_DataBlockID                     0.Image.Psd
# EDF_BinarySize                      4366944
# EDF_HeaderSize                      2560
# ByteOrder                           LowByteFirst
# DataType                            FloatValue
# Dim_1                               1028
# Dim_2                               1062
# Image                               0
# HeaderID                            EH:000000:000000:000000
# Size                                4366944
# Center_1                            607.5200
# Center_2                            651.5500
# Comment                             Xenocs_Cell_Window - 20251028_20perc_iodine_1.23mg
# DDummy                              0.6
# Date                                2025-10-30T00:41:09
# Delta                               0
# Dummy                               -1.5
# ExposureTime                        360
# Gamma                               0
# Intensity1                          8.45819e-10
# PSize_1                             7.5e-05
# PSize_2                             7.5e-05
# Pressure                            0.0326414
# SampleDistance                      0.450002
# SampleEnvKind                       large
# SampleEnvPN                         ElectroChemical cell
# SampleEnvSN                         1141
# Thickness                           0
# Wavelength                          1.541891e-10
# Wavelength                          1.54189e-10
# aux                                 0
# aux_dial                            0.002375
# beamx                               588.434
# beamx_dial                          588.434
# beamz                               657.808
# beamz_dial                          657.808
# det0x                               0
# det0x_dial                          6.36945
# det0xvd                             0
# det0xvd_dial                        0
# det0y                               450.002
# det0y_dial                          481.635
# det0z                               0
# det0z_dial                          1.23302
# det0zvd                             0
# det0zvd_dial                        0
# mag                                 1.818
# mag_dial                            1.818
# om                                  0.2499
# om_dial                             -0.610199
# phi                                 -0.0120535
# phi_dial                            0
# ry                                  0.599993
# ry_dial                             0.599993
# s1bot                               0.8
# s1bot_dial                          -1.66094
# s1hl                                0.8
# s1hl_dial                           -0.608437
# s1hr                                0.8
# s1hr_dial                           0.970938
# s1top                               0.8
# s1top_dial                          -0.461562
# s2bot                               0.45
# s2bot_dial                          1.36109
# s2hl                                0.45
# s2hl_dial                           -0.83375
# s2hr                                0.45
# s2hr_dial                           -0.118594
# s2top                               0.45
# s2top_dial                          1.44734
# w2theta                             32
# w2theta_dial                        32
# waxsch                              19.2605
# waxsch_dial                         -32.7355
# waxsh                               137.085
# waxsh_dial                          -43.5338
# waxsth                              26.0607
# waxsth_dial                         -19.4086
# waxsz                               67.0407
# waxsz_dial                          -23.7954
# wind                                65.9854
# wind_dial                           66.0041
# wpsi                                124
# wpsi_dial                           124
# wstod                               115
# wstod_dial                          115
# x                                   0
# x_dial                              1.00969
# z                                   0
# z_dial                              13.3172
# CountCutoff                         15302352
# DetectorModel                       Dectris EIGER2 Si 1M, S/N E-02-0362
# ThresholdSetting                    4023.88989258
# Saturation                          0
# FlatField                           Corrected
# BackgroundReductionExtra            0.02
# BackgroundCorrectionConstant        0.0026712
# Detector                            0
# Monitor                             0
# Pil_Roi0                            0
# SumForIntensity1                    3.04495e+08
# TransmittedFlux                     845819
# det                                 0
# mon                                 0
# pilai0                              3.04495e+08
# pilai1                              771749
# pilct0                              5.27555e+08
# pilct1                              771749
# pilroi0                             0
# pilroi1                             0
# sec                                 1
# title                               20251028_20perc_iodine_1.23mg_0_00312.edf
# usaxs0                              0
# Operation                           Azimuthal average I(q)
# Error_model                         ErrorModel.poisson
# Geometrical_correction              True
# Transmission_correction             True
# Thickness_correction                False
# Binning mode                        Uniform
# Binning factor                      1.0
# Psi                                 0.0
# Omega                               0.2499
# MaskInvalidPixels                   True
# DetectorEdge                        3
# MaskFiles                           ['20251028_20perc_iodine_1.23mg_0_00012_mask.edf']
################################################################################
    q(A⁻¹)                Intensity(a.u.)            Sigma_I(a.u.)            
       0.000340                371872.848                121.059765           
       0.001019                359180.574                 72.857566           
       0.001698                349861.755                50.8453816           
       0.002377                331010.303                44.2353101           
       0.003056                308153.164                36.0717896           
       0.003735                253394.205                28.8476585           
       0.004415                 204904.44                25.9410778           
       0.005094                153331.963                19.4338763           
       0.005773                101423.371                14.6331849           
       0.006452                59137.6783                10.7060987           
       0.007131                32408.4189                7.67779382           
       0.007810                16204.2398                5.38774157           
       0.008490                8092.47443                3.37493673           
       0.009169                3895.38134                2.31414526           
       0.009848                1195.41144                1.23945254           
       0.010527                460.458893               0.769248913           
       0.011206                116.370599               0.369085176           
       0.011885                53.9575351                0.23350656           
       0.012564                24.8332118                0.16263771           
       0.013244                16.7655034               0.124931823           
       0.013923                12.3605913               0.109001899           
       0.014602                9.42585554              0.0882794777           
       0.015281                 7.4689932              0.0799943421           
       0.015960                  6.158012              0.0721148049           
       0.016639                4.89758534              0.0607309108           
       0.017319                4.10641968              0.0547448451           
       0.017998                3.54616327              0.0486701061           
       0.018677                2.90446925              0.0456206501           
       0.019356                2.49444429              0.0417747719           
       0.020035                2.09525531               0.035920214           
       0.020714                1.84851415              0.0340960497           
       0.021394                1.61323839              0.0301378178           
       0.022073                1.44168845              0.0296420065           
       0.022752                1.31351063              0.0270658836           
       0.023431                 1.1413287              0.0244899601           
       0.024110               0.984163695              0.0237095378           
       0.024789                0.89334967              0.0209787862           
       0.025469               0.806696017              0.0205436043           
       0.026148               0.761762639              0.0187571329           
       0.026827               0.683727955              0.0180548195           
       0.027506               0.628093947              0.0175542312           
       0.028185               0.555050552              0.0157370053           
       0.028864               0.539365052              0.0154260073           
       0.029544               0.481929258              0.0141400043           
       0.030223               0.454680809              0.0139313934           
       0.030902               0.426765801              0.0136204758           
       0.031581               0.364952531              0.0119734055           
       0.032260               0.357205909              0.0120474858           
       0.032939               0.319796157              0.0109912965           
       0.033619               0.295011871              0.0107119444           
       0.034298               0.287737415              0.0102951319           
       0.034977               0.244448622             0.00930267313           
       0.035656               0.234815168             0.00935883049           
       0.036335               0.212420298             0.00863320664           
       0.037014               0.212244864               0.008655382           
       0.037693               0.195196277             0.00798495614           
       0.038373                0.16699671             0.00745816283           
       0.039052               0.165132875             0.00744798071           
       0.039731               0.168687068             0.00735227681           
       0.040410               0.151190918             0.00691388676           
       0.041089               0.149224652             0.00676118688           
       0.041768               0.138047435             0.00653702124           
       0.042448               0.138411863             0.00649485287           
       0.043127               0.130789519             0.00616437327           
       0.043806               0.130326041             0.00619932267           
       0.044485               0.110301605              0.0055860495           
       0.045164               0.119093063             0.00591879625           
       0.045843               0.111246727              0.0054866506           
       0.046523               0.103830958             0.00531892921           
       0.047202               0.100845507             0.00527853353           
       0.047881               0.093551823             0.00498602287           
       0.048560              0.0993804217             0.00518584002           
       0.049239              0.0923058488             0.00479883892           
       0.049918              0.0907714929             0.00485181665           
       0.050598              0.0865882846             0.00466760443           
       0.051277              0.0825005542             0.00454163908           
       0.051956              0.0769850253             0.00435964876           
       0.052635              0.0763249073             0.00424879403           
       0.053314              0.0793777382             0.00445961424           
       0.053993              0.0760863868             0.00424642589           
       0.054673              0.0695411043              0.0039692399           
       0.055352              0.0787689391             0.00428644059           
       0.056031              0.0663316908             0.00385085776           
       0.056710              0.0696319748             0.00404217726           
       0.057389              0.0638906274             0.00373376271           
       0.058068               0.069365562             0.00393055636           
       0.058748              0.0736818983             0.00410153488           
       0.059427              0.0639386968             0.00375605499           
       0.060106              0.0626893105             0.00375437724           
       0.060785              0.0602265569              0.0035696347           
       0.061464              0.0604159529             0.00366141966           
       0.062143              0.0558184966             0.00348360213           
       0.062822              0.0569146801              0.0034763632           
       0.063502              0.0522881532             0.00332612092           
       0.064181              0.0515912441             0.00326899266           
       0.064860              0.0514221625             0.00331333994           
       0.065539              0.0504579064             0.00325003328           
       0.066218              0.0513044924             0.00320701409           
       0.066897              0.0549607744             0.00334494763           
       0.067577              0.0505873409              0.0032399348           
       0.068256              0.0446556458             0.00311883827           
       0.068935              0.0430248814             0.00301186024           
       0.069614              0.0495036873             0.00326283933           
       0.070293              0.0477868065             0.00323531999           
       0.070972              0.0448159231              0.0031101968           
       0.071652              0.0488682236             0.00325372493           
       0.072331               0.045549864             0.00308532662           
       0.073010              0.0413654227             0.00300737694           
       0.073689              0.0379067216             0.00286308442           
       0.074368               0.039431696              0.0029147963           
       0.075047              0.0371700271              0.0027995528           
       0.075727              0.0404529752             0.00290253024           
       0.076406              0.0399056652             0.00294034754           
       0.077085              0.0374397738              0.0027948263           
       0.077764              0.0389713885              0.0028414283           
       0.078443              0.0392736582              0.0028700868           
       0.079122              0.0389361439             0.00283027435           
       0.079802              0.0340401821             0.00267442133           
       0.080481              0.0313690254             0.00248074482           
       0.081160              0.0356273445             0.00269801804           
       0.081839              0.0300855213             0.00243962321           
       0.082518              0.0305374018             0.00245994634           
       0.083197              0.0368715487             0.00266105774           
       0.083876              0.0347476375             0.00254035345           
       0.084556              0.0341852146             0.00258978656           
       0.085235              0.0294128701             0.00235581215           
       0.085914              0.0332761338             0.00253009522           
       0.086593              0.0349891095             0.00257770194           
       0.087272              0.0326928449              0.0024564614           
       0.087951              0.0305271889             0.00242732595           
       0.088631              0.0320389095             0.00240200261           
       0.089310              0.0285625698             0.00231605066           
       0.089989              0.0340880013             0.00250059293           
       0.090668              0.0264393178             0.00222656264           
       0.091347              0.0292322427             0.00235432074           
       0.092026              0.0302587101              0.0022895186           
       0.092706              0.0305255893             0.00238306175           
       0.093385              0.0293514486             0.00230089681           
       0.094064              0.0316175353             0.00241585996           
       0.094743              0.0284855457             0.00225813973           
       0.095422              0.0292294545             0.00226192831           
       0.096101              0.0273746643             0.00223406828           
       0.096781              0.0269386451             0.00218447249           
       0.097460              0.0270531344             0.00212939369           
       0.098139              0.0289933533             0.00218746833           
       0.098818              0.0240391564             0.00196730043           
       0.099497              0.0248324961             0.00200360461           
       0.100176              0.0281185982             0.00207609977           
       0.100856              0.0259299042             0.00199238589           
       0.101535              0.0226845747              0.0018599442           
       0.102214              0.0234988867             0.00189304496           
       0.102893              0.0255723441               0.001952297           
       0.103572              0.0259638335             0.00193812322           
       0.104251              0.0256849421             0.00193480722           
       0.104931              0.0280795598             0.00200457175           
       0.105610              0.0228924297             0.00181769504           
       0.106289              0.0248477061             0.00186221601           
       0.106968              0.0231913086             0.00180441536           
       0.107647              0.0251615431             0.00188062888           
       0.108326              0.0260251263             0.00188704276           
       0.109005              0.0228929784             0.00175871462           
       0.109685              0.0239328326             0.00177804308           
       0.110364              0.0205967099             0.00166820356           
       0.111043               0.025740167             0.00185750685           
       0.111722              0.0216296455             0.00168193211           
       0.112401              0.0251231044             0.00181771772           
       0.113080               0.023123909             0.00172391116           
       0.113760              0.0218120522             0.00170226238           
       0.114439              0.0240088022             0.00176043782           
       0.115118              0.0230438218             0.00171169193           
       0.115797              0.0229553339             0.00172422913           
       0.116476              0.0212607468             0.00163453103           
       0.117155              0.0207409734             0.00162744823           
       0.117835              0.0219358887             0.00164039936           
       0.118514              0.0221284972             0.00166847592           
       0.119193              0.0212427255             0.00163475334           
       0.119872              0.0187890302             0.00151821617           
       0.120551              0.0201208992             0.00156063941           
       0.121230              0.0218183693              0.0016087829           
       0.121910              0.0224023428              0.0016459256           
       0.122589               0.020245979             0.00156631881           
       0.123268              0.0218050623             0.00159401767           
       0.123947              0.0204988087              0.0015555303           
       0.124626              0.0217698572             0.00158343112           
       0.125305              0.0200925625              0.0015286746           
       0.125985              0.0189049133             0.00147130154           
       0.126664              0.0182868052             0.00143326539           
       0.127343              0.0199935151             0.00151602847           
       0.128022              0.0190142302             0.00146709513           
       0.128701              0.0214837931             0.00155133697           
       0.129380              0.0198404027             0.00147215054           
       0.130059              0.0195968681             0.00146648535           
       0.130739              0.0176879593               0.001403029           
       0.131418              0.0187932292             0.00144215145           
       0.132097              0.0204634235             0.00148557145           
       0.132776              0.0194082377             0.00144023151           
       0.133455              0.0176441522             0.00138388727           
       0.134134              0.0193971107             0.00144638395           
       0.134814              0.0230909542             0.00156184507           
       0.135493              0.0182924651             0.00139574843           
       0.136172              0.0210297067             0.00148524013           
       0.136851              0.0177961064             0.00137423517           
       0.137530              0.0192892081             0.00139673205           
       0.138209              0.0188198641             0.00139583243           
       0.138889              0.0191841437             0.00141548876           
       0.139568              0.0199002572              0.0014410426           
       0.140247              0.0192381413             0.00141501003           
       0.140926              0.0177150988             0.00131901891           
       0.141605              0.0165219621              0.0013061883           
       0.142284              0.0206129089             0.00143478811           
       0.142964              0.0184880576             0.00136402298           
       0.143643              0.0169317964             0.00130370277           
       0.144322              0.0189242273             0.00134943501           
       0.145001              0.0176888864             0.00133142676           
       0.145680              0.0183663159             0.00132458498           
       0.146359              0.0205320238             0.00140562806           
       0.147039              0.0198349075             0.00139293382           
       0.147718              0.0175404563              0.0012882782           
       0.148397              0.0174205194             0.00130381664           
       0.149076              0.0206202896             0.00137450844           
       0.149755              0.0165913077             0.00125197272           
       0.150434              0.0178070531             0.00129756107           
       0.151114              0.0197028701             0.00135733714           
       0.151793              0.0187513858             0.00132416985           
       0.152472              0.0168397764              0.0012326937           
       0.153151              0.0194366763             0.00133713898           
       0.153830               0.015720229             0.00119376603           
       0.154509              0.0201586555             0.00134618504           
       0.155188              0.0181679644             0.00127751664           
       0.155868              0.0176554633             0.00125040718           
       0.156547              0.0179720527             0.00126967195           
       0.157226              0.0198388772              0.0013014039           
       0.157905              0.0171929144             0.00122168984           
       0.158584              0.0188927543              0.0012783334           
       0.159263              0.0175913065             0.00123805684           
       0.159943               0.017732716             0.00124395007           
       0.160622              0.0158725979             0.00115418688           
       0.161301              0.0169698042              0.0012093746           
       0.161980              0.0165544624             0.00117417599           
       0.162659              0.0169601156             0.00120164787           
       0.163338              0.0165807543             0.00117844874           
       0.164018              0.0200481186             0.00128902084           
       0.164697              0.0183642054             0.00124954008           
       0.165376              0.0181117934              0.0012138104           
       0.166055              0.0160621005             0.00115060452           
       0.166734              0.0170906577             0.00118155648           
       0.167413              0.0163516313             0.00115653719           
       0.168093              0.0156731777             0.00114300048           
       0.168772              0.0149325747             0.00108304103           
       0.169451               0.017909309              0.0012079102           
       0.170130              0.0168006383             0.00115456625           
       0.170809              0.0155989246             0.00112578505           
       0.171488               0.018509159             0.00121513426           
       0.172168              0.0178069245             0.00118041048           
       0.172847              0.0169381174             0.00116637688           
       0.173526              0.0152730335             0.00108643588           
       0.174205              0.0178430675             0.00117970051           
       0.174884               0.017798101             0.00117207315           
       0.175563              0.0166341539             0.00113793792           
       0.176243              0.0173799333             0.00117480814           
       0.176922              0.0166178315             0.00111882535           
       0.177601              0.0166988749             0.00113387582           
       0.178280              0.0198525297             0.00122251632           
       0.178959              0.0147533418              0.0010623586           
       0.179638              0.0155651048             0.00108805167           
       0.180317              0.0151257636             0.00106477231           
       0.180997              0.0177959172             0.00116120573           
       0.181676              0.0167397971             0.00111419665           
       0.182355              0.0149909789             0.00106072373           
       0.183034              0.0163097077             0.00108863866           
       0.183713              0.0152458193             0.00106535204           
       0.184392              0.0161125576             0.00109488525           
       0.185072              0.0166712112             0.00110101195           
       0.185751              0.0152366577             0.00105550386           
       0.186430              0.0167688111             0.00109954644           
       0.187109              0.0172065647             0.00112621013           
       0.187788              0.0172802638             0.00112583697           
       0.188467              0.0150576777             0.00103850639           
       0.189147              0.0157272881             0.00107209444           
       0.189826              0.0156730545             0.00105131844           
       0.190505               0.017736877             0.00113680746           
       0.191184              0.0155117905              0.0010477908           
       0.191863              0.0170931754             0.00110222168           
       0.192542              0.0147471206             0.00103344532           
       0.193222              0.0158191996             0.00104636406           
       0.193901              0.0160842764             0.00106923646           
       0.194580              0.0166120438             0.00106762911           
       0.195259              0.0150435781             0.00102764666           
       0.195938              0.0168200598             0.00108922486           
       0.196617              0.0153750429             0.00102685019           
       0.197297              0.0177884426             0.00110901534           
       0.197976              0.0158273703             0.00103003094           
       0.198655              0.0168024804             0.00107287861           
       0.199334               0.016020716             0.00103838391           
       0.200013              0.0160737051             0.00103952303           
       0.200692               0.016339616             0.00105439051           
       0.201371              0.0158990173             0.00102836398           
       0.202051              0.0128571448            0.000927646338           
       0.202730              0.0150830833            0.000994708299           
       0.203409              0.0158992334             0.00102812133           
       0.204088              0.0169114896             0.00105917221           
       0.204767              0.0160860191             0.00102756978           
       0.205446              0.0164180205             0.00104014828           
       0.206126              0.0166049949             0.00103184246           
       0.206805              0.0160350775             0.00103256916           
       0.207484              0.0164044921             0.00102561987           
       0.208163              0.0146090583            0.000973684028           
       0.208842              0.0149721268            0.000983037817           
       0.209521              0.0142782338            0.000952009704           
       0.210201              0.0138327447            0.000947497027           
       0.210880              0.0142736783             0.00094359303           
       0.211559              0.0142018691            0.000955132426           
       0.212238              0.0151245068            0.000980654204           
       0.212917              0.0150211655             0.00097366712           
       0.213596              0.0139724168            0.000944614965           
       0.214276              0.0152871242            0.000967472186           
       0.214955              0.0177949782             0.00106576763           
       0.215634               0.014014125            0.000939016063           
       0.216313               0.016275616             0.00100982434           
       0.216992              0.0149534633            0.000967696641           
       0.217671              0.0138838835            0.000926130299           
       0.218351              0.0153676558              0.0009838916           
       0.219030              0.0155877188            0.000975269902           
       0.219709              0.0151786438            0.000968390754           
       0.220388               0.014589168            0.000948180735           
       0.221067               0.014408941            0.000943052937           
       0.221746              0.0134096707            0.000908832829           
       0.222426              0.0143739624            0.000926880469           
       0.223105              0.0154507517            0.000974062787           
       0.223784              0.0140018567            0.000918069604           
       0.224463              0.0137448619            0.000916849088           
       0.225142              0.0152525952            0.000950545638           
       0.225821              0.0147331505            0.000937982541           
       0.226500              0.0147260238            0.000943718241           
       0.227180              0.0153923645            0.000949968789           
       0.227859              0.0156428368            0.000961963027           
       0.228538              0.0157320008            0.000955013701           
       0.229217              0.0155599413            0.000957294862           
       0.229896              0.0159104579            0.000967551209           
       0.230575              0.0127796174            0.000853321771           
       0.231255              0.0145263617            0.000923392365           
       0.231934              0.0147817751            0.000925111079           
       0.232613              0.0148404563            0.000930365411           
       0.233292              0.0136164684            0.000882562928           
       0.233971              0.0159246303            0.000953993456           
       0.234650              0.0135371038            0.000889922393           
       0.235330              0.0141531593            0.000902000745           
       0.236009              0.0148420351            0.000921700421           
       0.236688              0.0141667964            0.000897267383           
       0.237367              0.0135130388            0.000877592465           
       0.238046              0.0139254316            0.000897157099           
       0.238725              0.0147357497            0.000908652532           
       0.239405              0.0157747644            0.000945971164           
       0.240084              0.0144690135            0.000900205492           
       0.240763              0.0124660456            0.000843578043           
       0.241442              0.0136940352            0.000871693287           
       0.242121              0.0149932082            0.000913827596           
       0.242800              0.0148991438            0.000915269153           
       0.243480              0.0153191592            0.000923734932           
       0.244159              0.0128739144             0.00084721825           
       0.244838              0.0137405736            0.000860868495           
       0.245517              0.0142709024            0.000889944127           
       0.246196              0.0123444282             0.00082809826           
       0.246875              0.0153859705            0.000911616679           
       0.247554              0.0136672996            0.000867926054           
       0.248234              0.0139955234            0.000864968401           
       0.248913              0.0140308155             0.00087577297           
       0.249592              0.0143688102            0.000877837065           
       0.250271              0.0151889032            0.000899919821           
       0.250950              0.0150491706            0.000901257238           
       0.251629               0.014054033            0.000863546942           
       0.252309              0.0143793215            0.000875256206           
       0.252988              0.0153595382             0.00088901479           
       0.253667              0.0149384095            0.000886986282           
       0.254346               0.013208752            0.000833885143           
       0.255025              0.0129687149            0.000824463489           
       0.255704              0.0132807328             0.00083050127           
       0.256384              0.0125566725            0.000804750962           
       0.257063              0.0134471226            0.000837544669           
       0.257742              0.0118137194            0.000779591331           
       0.258421              0.0136751002            0.000837147859           
       0.259100              0.0142489293            0.000856021576           
       0.259779               0.012197975            0.000791351004           
       0.260459              0.0127057572             0.00080924046           
       0.261138              0.0124540533             0.00078552772           
       0.261817              0.0139165306            0.000847131708           
       0.262496              0.0133272808            0.000820873089           
       0.263175              0.0130745979            0.000814800384           
       0.263854              0.0127426794            0.000800654284           
       0.264534              0.0126164683            0.000789875073           
       0.265213              0.0125403818            0.000799899626           
       0.265892              0.0120639883            0.000774507344           
       0.266571              0.0126495745            0.000791278377           
       0.267250              0.0124278029            0.000785632615           
       0.267929              0.0123865699            0.000783524006           
       0.268609              0.0125916075              0.0007943077           
       0.269288              0.0114555065            0.000745040944           
       0.269967              0.0137822785            0.000826014524           
       0.270646              0.0128187553            0.000793174354           
       0.271325              0.0138413438             0.00082558084           
       0.272004              0.0117400897            0.000752757792           
       0.272683              0.0107573609            0.000721454104           
       0.273363               0.012952824            0.000796707955           
       0.274042              0.0112988539            0.000739714634           
       0.274721              0.0109928457            0.000729196409           
       0.275400              0.0126023926            0.000775587712           
       0.276079              0.0101726133            0.000700776827           
       0.276758              0.0128841732             0.00079861612           
       0.277438              0.0115155736            0.000746534671           
       0.278117              0.0120800642            0.000778516714           
       0.278796              0.0131797753            0.000804927128           
       0.279475              0.0118963567            0.000777365472           
       0.280154              0.0110086937            0.000737044609           
       0.280833             0.00990648822            0.000703426648           
       0.281513              0.0118888891            0.000782690739           
       0.282192               0.011752987            0.000764927981           
       0.282871              0.0100314144            0.000711625839           
       0.283550              0.0104233403            0.000729281565           
       0.284229              0.0109880958            0.000759775449           
       0.284908              0.0105528162            0.000752428175           
       0.285588              0.0100994693            0.000727469023           
       0.286267              0.0136574076            0.000859504382           
       0.286946              0.0124671486            0.000815857028           
       0.287625              0.0109335049            0.000777038525           
       0.288304              0.0116984674            0.000793003739           
       0.288983              0.0119899449              0.0008129888           
       0.289663              0.0101493623              0.0007523671           
       0.290342             0.00909311391            0.000708351382           
       0.291021              0.0102107139            0.000754664564           
       0.291700             0.00998642077             0.00073658015           
       0.292379             0.00967795953            0.000741717425           
       0.293058              0.0101136875            0.000755366588           
       0.293738              0.0105948246            0.000766633054           
       0.294417              0.0103326122            0.000765886658           
       0.295096              0.0101004849            0.000748910264           
       0.295775              0.0110678004            0.000795924212           
       0.296454              0.0104263921            0.000762525008           
       0.297133             0.00946131548            0.000729814733           
       0.297812              0.0111978817            0.000797953454           
       0.298492              0.0101232882            0.000760166471           
       0.299171             0.00961766125            0.000739537545           
       0.299850              0.0106653893            0.000773460344           
       0.300529              0.0104023274            0.000772466591           
       0.301208              0.0108073305            0.000789276514           
       0.301887              0.0091458981            0.000725214959           
       0.302567             0.00888969042            0.000711404041           
       0.303246              0.0105176262            0.000778857641           
       0.303925             0.00824326363            0.000698376401           
       0.304604             0.00941284365             0.00073016329           
       0.305283             0.00900778937            0.000724873938           
       0.305962              0.0101017919            0.000762993762           
       0.306642             0.00973335359            0.000759122188           
       0.307321             0.00772362227            0.000674065255           
       0.308000              0.0089787869            0.000718160822           
       0.308679             0.00864905907            0.000720114954           
       0.309358             0.00976046356            0.000754636447           
       0.310037             0.00892751651             0.00072332661           
       0.310717             0.00879405773            0.000717208992           
       0.311396             0.00839306481            0.000705365628           
       0.312075             0.00824929383             0.00070816608           
       0.312754             0.00830196235            0.000696210766           
       0.313433              0.0094810468            0.000750480239           
       0.314112             0.00838494763            0.000705604907           
       0.314792             0.00942558247            0.000753393039           
       0.315471             0.00825006684            0.000696132649           
       0.316150              0.0102019106            0.000781276733           
       0.316829             0.00911758933            0.000743468569           
       0.317508             0.00868655715            0.000717539116           
       0.318187             0.00745522131            0.000673509313           
       0.318866             0.00855231114            0.000711647453           
       0.319546             0.00900248294            0.000741081459           
       0.320225             0.00770178904            0.000685471012           
       0.320904             0.00882953873            0.000722594653           
       0.321583             0.00806763261            0.000705934539           
       0.322262             0.00739469146            0.000665608516           
       0.322941             0.00734021288            0.000671648203           
       0.323621             0.00792411173            0.000693592373           
       0.324300              0.0084750142            0.000717859557           
       0.324979             0.00802328779            0.000699729041           
       0.325658             0.00812132927            0.000705268427           
       0.326337             0.00692570051            0.000652137595           
       0.327016             0.00705815865            0.000654164732           
       0.327696             0.00791286404             0.00070034451           
       0.328375             0.00759496324            0.000680342227           
       0.329054             0.00774140329            0.000690595205           
       0.329733             0.00793698589            0.000701818248           
       0.330412             0.00881810718            0.000733688085           
       0.331091             0.00707086126            0.000668909258           
       0.331771             0.00752564655            0.000672003084           
       0.332450             0.00740380909            0.000679482181           
       0.333129             0.00623726498            0.000622050248           
       0.333808             0.00670567972            0.000645837715           
       0.334487             0.00706940761            0.000666266187           
       0.335166             0.00845953326            0.000718168689           
       0.335846             0.00719303114            0.000673868096           
       0.336525             0.00684309629            0.000650782896           
       0.337204             0.00768954361            0.000691667165           
       0.337883             0.00716583871            0.000668583549           
       0.338562             0.00647683986            0.000639156385           
       0.339241             0.00701512978            0.000666432924           
       0.339921             0.00671606703            0.000641137626           
       0.340600             0.00736890129            0.000684329476           
       0.341279              0.0064570378            0.000633730925           
       0.341958             0.00710074191            0.000673944955           
       0.342637              0.0060160019            0.000611571793           
       0.343316             0.00511571842            0.000565590816           
       0.343995             0.00607995469            0.000626690076           
       0.344675             0.00624972286            0.000623702421           
       0.345354             0.00565629943            0.000597267037           
       0.346033              0.0057635946            0.000601333606           
       0.346712             0.00589956734            0.000612267477           
       0.347391             0.00571444291             0.00060631572           
       0.348070             0.00611589818            0.000618344025           
       0.348750             0.00649413791            0.000646384935           
       0.349429             0.00649862052            0.000638260394           
       0.350108             0.00641492749            0.000641767993           
       0.350787             0.00683219139            0.000651059427           
       0.351466             0.00688271132            0.000665499644           
       0.352145             0.00651162419            0.000647847749           
       0.352825             0.00681187981            0.000659614446           
       0.353504             0.00696268681            0.000666712475           
       0.354183             0.00573341234            0.000598031609           
       0.354862             0.00595091777            0.000623427426           
       0.355541             0.00481479351             0.00055342333           
       0.356220             0.00560569857            0.000598278043           
       0.356900             0.00449205638            0.000540650288           
       0.357579               0.004946879            0.000560404082           
       0.358258             0.00568078974            0.000608847866           
       0.358937              0.0065811072            0.000643000466           
       0.359616             0.00606707399            0.000625999684           
       0.360295             0.00639996886            0.000643479989           
       0.360975             0.00590319157            0.000615358491           
       0.361654             0.00479705938            0.000557577908           
       0.362333             0.00512572168            0.000573431574           
       0.363012             0.00479921317            0.000562006372           
       0.363691             0.00548688903            0.000589067987           
       0.364370             0.00524994217            0.000583356591           
       0.365050             0.00480443351             0.00055507003           
       0.365729             0.00607221973            0.000629972823           
       0.366408             0.00616409692            0.000636126307           
       0.367087             0.00634396059            0.000634989945           
       0.367766             0.00524247486             0.00058926509           
       0.368445             0.00517827983            0.000575248253           
       0.369124             0.00441319946            0.000535226598           
       0.369804             0.00511276639            0.000575166272           
       0.370483             0.00516169592            0.000580440505           
       0.371162             0.00541721552            0.000598081262           
       0.371841             0.00476822246            0.000551329773           
       0.372520             0.00557826943            0.000608277993           
       0.373199             0.00433527241            0.000529834993           
       0.373879             0.00531200899            0.000593281977           
       0.374558             0.00482257384             0.00055704096           
       0.375237             0.00510629968            0.000574132567           
       0.375916             0.00476805835             0.00056541986           
       0.376595             0.00495304085             0.00056502037           
       0.377274             0.00420299168            0.000528815405           
       0.377954             0.00386798133            0.000499333293           
       0.378633             0.00435979145            0.000536827926           
       0.379312             0.00469562356             0.00055697952           
       0.379991             0.00411487452             0.00051870117           
       0.380670             0.00447817142            0.000550678701           
       0.381349              0.0044857669            0.000543231978           
       0.382029             0.00421039635            0.000533834936           
       0.382708               0.004929196            0.000564995014           
       0.383387             0.00332363882            0.000474455761           
       0.384066             0.00419386196            0.000528071408           
       0.384745             0.00429998006            0.000536812607           
       0.385424             0.00474392351             0.00056575822           
       0.386104             0.00475169937            0.000559964384           
       0.386783             0.00422478652            0.000539426027           
       0.387462             0.00452222133            0.000544207929           
       0.388141              0.0035846476             0.00049225915           
       0.388820             0.00566921724            0.000614584116           
       0.389499             0.00533752703            0.000599691423           
       0.390178             0.00367677548            0.000499709227           
       0.390858             0.00447713612            0.000546959906           
       0.391537             0.00403938561            0.000524837939           
       0.392216             0.00399175306            0.000515194796           
       0.392895             0.00402224657            0.000518901121           
       0.393574             0.00387024325            0.000507740196           
       0.394253             0.00458109949            0.000554889707           
       0.394933             0.00434168557            0.000546368478           
       0.395612             0.00408057353            0.000514298275           
       0.396291             0.00425939757            0.000536143961           
       0.396970             0.00432081984            0.000535211514           
       0.397649             0.00420374627            0.000529536245           
       0.398328             0.00457487357            0.000549988781           
       0.399008             0.00349807564            0.000479881501           
       0.399687             0.00312605404            0.000455410807           
       0.400366             0.00506899552             0.00057769921           
       0.401045              0.0042630116            0.000528782624           
       0.401724             0.00402407816            0.000514607889           
       0.402403             0.00502138127            0.000579330821           
       0.403083             0.00415871714            0.000519621092           
       0.403762             0.00407170779            0.000516691948           
       0.404441              0.0038662941            0.000506696727           
       0.405120             0.00368776318             0.00049323702           
       0.405799             0.00450681197            0.000542897765           
       0.406478             0.00437812927            0.000535104412           
       0.407158             0.00461702936            0.000548478647           
       0.407837             0.00443473854            0.000542286565           
       0.408516             0.00323683674            0.000459262083           
       0.409195             0.00325810087            0.000465995085           
       0.409874             0.00465731417            0.000564894868           
       0.410553             0.00449835247            0.000561141679           
       0.411233             0.00395640011            0.000523527756           
       0.411912             0.00329892926            0.000484826668           
       0.412591             0.00427813572            0.000555766151           
       0.413270             0.00360667217            0.000507866992           
       0.413949             0.00281521215            0.000453596698           
       0.414628              0.0023644242            0.000414950761           
       0.415307             0.00396864035            0.000543574348           
       0.415987             0.00296096294              0.0004656514           
       0.416666             0.00335916941            0.000492991609           
       0.417345             0.00304177685            0.000476957578           
       0.418024             0.00408621997             0.00055282543           
       0.418703             0.00287280469            0.000462680942           
       0.419382             0.00328049469            0.000491999646           
       0.420062             0.00264955208            0.000443400773           
       0.420741             0.00289377835            0.000465850239           
       0.421420             0.00344602939            0.000510290081           
       0.422099             0.00277743614            0.000458132357           
       0.422778             0.00294304783             0.00047414708           
       0.423457             0.00268750675             0.00045586821           
       0.424137             0.00326101105            0.000493974808           
       0.424816             0.00239629408            0.000432296399           
       0.425495             0.00317908246            0.000497452266           
       0.426174             0.00209279425            0.000403753058           
       0.426853             0.00258976755            0.000446413059           
       0.427532             0.00200507216            0.000396121031           
       0.428212             0.00229311799            0.000426416049           
       0.428891             0.00306302532            0.000491707358           
       0.429570             0.00188492669              0.0003859895           
       0.430249             0.00225448299             0.00041994366           
       0.430928             0.00236500235            0.000439519214           
       0.431607              0.0026642592            0.000458483014           
       0.432287             0.00280024995            0.000473481032           
       0.432966             0.00373903109            0.000551933922           
       0.433645             0.00236404822            0.000439328122           
       0.434324             0.00330336384            0.000516194328           
       0.435003             0.00137724488            0.000333873331           
       0.435682             0.00198087583            0.000403693876           
       0.436361              0.0026220862            0.000463836999           
       0.437041             0.00278164862            0.000477104016           
       0.437720             0.00280944669             0.00048179476           
       0.438399             0.00134413288            0.000334991017           
       0.439078             0.00250432366            0.000470513245           
       0.439757             0.00297946353             0.00051004904           
       0.440436             0.00268037107            0.000494674145           
       0.441116             0.00230102022            0.000465828553           
       0.441795             0.00250518387            0.000486640906           
       0.442474             0.00318357338            0.000550117623           
       0.443153             0.00225693866            0.000473994766           
       0.443832             0.00277748026            0.000526708808           
       0.444511             0.00175171622            0.000416404766           
       0.445191             0.00247987348            0.000507499466           
       0.445870             0.00216529026            0.000474231883           
       0.446549             0.00222328374            0.000485607995           
       0.447228             0.00188291236            0.000444367664           
       0.447907             0.00234455014            0.000501807779           
       0.448586             0.00181879414            0.000452611156           
       0.449266              0.0023280489            0.000507360093           
       0.449945             0.00262311913            0.000536357338           
       0.450624             0.00174487931            0.000444396354           
       0.451303               0.002450334            0.000533450235           
       0.451982             0.00185717085            0.000461545049           
       0.452661             0.00253520105            0.000549301607           
       0.453341             0.00278050782            0.000577279351           
       0.454020             0.00172166409            0.000454945622           
       0.454699             0.00296616671            0.000602603389           
       0.455378             0.00188476352            0.000480612682           
       0.456057             0.00195419507            0.000498088585           
       0.456736             0.00168799991             0.00046147954           
       0.457416             0.00219755292            0.000526560459           
       0.458095             0.00148908081            0.000439721584           
       0.458774             0.00193313357            0.000507634943           
       0.459453             0.00248832053            0.000578840079           
       0.460132             0.00160241972            0.000454476846           
       0.460811             0.00134039787            0.000431170342           
       0.461490             0.00129397961            0.000419330199           
       0.462170              0.0014858795            0.000456361732           
       0.462849              0.0015179757            0.000464256009           
       0.463528             0.00235748967            0.000577220503           
       0.464207              0.0018597625            0.000522271873           
       0.464886            0.000251123773            0.000190421892           
       0.465565             0.00129653447            0.000437431206           
       0.466245             0.00145781819            0.000465280646           
       0.466924             0.00248209504            0.000621458391           
       0.467603             0.00146815076            0.000467818436           
       0.468282               0.001369833            0.000462598356           
       0.468961            0.000940570346            0.000385842078           
       0.469640             0.00142369367            0.000476597018           
       0.470320            0.000478042815            0.000276360843           
       0.470999            0.000491095088            0.000282750218           
       0.471678             0.00199566467            0.000575464408           
       0.472357            0.000507951778            0.000291136504           
       0.473036              0.0013460575            0.000476924819           
       0.473715             0.00120932584            0.000455589792           
       0.474395             0.00143432337            0.000503023255           
       0.475074              0.0010877371            0.000438065596           
       0.475753             0.00122317464            0.000460529798           
       0.476432            0.000595884959            0.000333138338           
       0.477111            0.000223365561             0.00020149656           
       0.477790            0.000954086761             0.00041866602           
       0.478470            0.000799666875            0.000388359506           
       0.479149            0.000447977332             0.00029368134           
       0.479828            0.000824666882             0.00039752463           
       0.480507            0.000646213775            0.000354731882           
       0.481186            0.000287313395            0.000241864069           
       0.481865            0.000859062466            0.000413042013           
       0.482545            7.03457205e-05            0.000119583792           
       0.483224            7.31478226e-05            0.000122775477           
       0.483903             0.00177792533            0.000614830287           
       0.484582            0.000328291216            0.000268493485           
       0.485261            0.000898978374            0.000433045776           
       0.485940            0.000540282297            0.000349256978           
       0.486619             0.00054880395            0.000348128438           
       0.487299            0.000349741879            0.000282340725           
       0.487978           -9.88164406e-05                         0           
       0.488657           -9.50641057e-05                         0           
       0.489336           -8.81217698e-05                         0           
       0.490015           -0.000322765385                         0           
       0.490694           -8.54309022e-05                         0           
       0.491374            0.000167198561            0.000202241047           
       0.492053           -6.57195823e-05                         0           
       0.492732           -6.86284576e-05                         0           
       0.493411           -0.000322863356                         0           
       0.494090           -5.91756415e-05                         0           
       0.494769           -0.000322902782                         0           
       0.495449             0.00020598257            0.000234198066           
       0.496128           -0.000322942434                         0           
       0.496807           -0.000322962073                         0           
       0.497486           -4.88393556e-05                         0           
       0.498165           -0.000323001997                         0           
       0.498844           -0.000323021799                         0           
       0.499524           -0.000323041694                         0           
       0.500203           -3.80377398e-05                         0           
       0.500882           -2.20128139e-05                         0           
       0.501561           -0.000323101594                         0           
       0.502240           -2.17394545e-05                         0           
       0.502919           -0.000323141786                         0           
       0.503599           -0.000323161918                         0           
       0.504278           -5.26837568e-06                         0           
       0.504957           -0.000323202507                         0           
       0.505636            9.79893664e-06            5.67627181e-05           
       0.506315            1.06838573e-05            5.95153394e-05           
       0.506994            -0.00032326294                         0           
       0.507673            2.36957758e-05            9.11725458e-05           
       0.508353           -0.000323303302                         0           
       0.509032            4.51816594e-05            0.000128928413           
       0.509711           -0.000323343919                         0           
       0.510390           -0.000323364551                         0           
       0.511069           -0.000323385115                         0           
       0.511748            5.16460605e-05            0.000138493807           
       0.512428           -0.000323426222                         0           
       0.513107           -0.000323446532                         0           
       0.513786           -0.000323466905                         0           
       0.514465           -0.000323487626                         0           
       0.515144             0.00137653759            0.000763485067           
       0.515823            -0.00032352885                         0           
       0.516503            -0.00032354956                         0           
       0.517182           -0.000323570269                         0           
       0.517861           -0.000323590927                         0           
       0.518540           -0.000323611701                         0           
       0.519219           -0.000323632356                         0           
       0.519898            0.000146556286            0.000262858738           
       0.520578           -0.000323674207                         0           
       0.521257            0.000174617376            0.000295090567           
       0.521936           -0.000323715692                         0           
       0.522615            0.000162913584            0.000281592925           
       0.523294           -0.000323757802                         0           
       0.523973           -0.000323778604                         0           
       0.524653           -0.000323799256                         0           
       0.525332           -0.000323820209                         0           
       0.526011           -0.000323841539                         0           
       0.526690           -0.000323862829                         0           
       0.527369           -0.000323883942                         0           
       0.528048             0.00171375671            0.000936388702           
       0.528728           -0.000323926444                         0           
       0.529407           -0.000323947585                         0           
       0.530086           -0.000323968616                         0           
       0.530765           -0.000323989678                         0           
       0.531444           -0.000324010966                         0           
       0.532123           -0.000324032631                         0           
       0.532802           -0.000324054119                         0           
       0.533482           -0.000324075534                         0           
       0.534161           -0.000324096983                         0           
       0.534840           -0.000324118249                         0           
       0.535519            0.000277853473            0.000405549646           
       0.536198           -0.000324161343                         0           
       0.536877             0.00097556464            0.000795698949           
       0.537557            0.000267835465            0.000395328695           
       0.538236           -0.000324225683                         0           
       0.538915           -0.000324247372                         0           
       0.539594           -0.000324269032                         0           
       0.540273           -0.000324291031                         0           
       0.540952           -0.000324312784                         0           
       0.541632            -0.00032433414                         0           
       0.542311           -0.000324355692                         0           
       0.542990            0.000385595264             0.00052951681           
       0.543669            -0.00032439946                         0           
       0.544348           -0.000324421409                         0           
       0.545027             0.00240312835             0.00127696258           
       0.545707            0.000404842747            0.000549262924           
       0.546386           -0.000324487309                         0           
       0.547065           -0.000324509074                         0           
       0.547744            0.000448347784            0.000590908256           
       0.548423           -0.000324553044                         0           
       0.549102           -0.000324575172                         0           
       0.549782           -0.000324597187                         0           
       0.550461           -0.000324619465                         0           
       0.551140           -0.000324641876                         0           
       0.551819           -0.000324664023                         0           
       0.552498           -0.000324686359                         0           
       0.553177           -0.000324708312                         0           
       0.553856            0.000591932818            0.000735560865           
       0.554536           -0.000324752447                         0           
       0.555215           -0.000324774888                         0           
       0.555894           -0.000324797276                         0           
       0.556573           -0.000324819797                         0           
       0.557252           -0.000324842299                         0           
       0.557931              0.0016011199             0.00124811606           
       0.558611           -0.000324887623                         0           
       0.559290           -0.000324909964                         0           
       0.559969           -0.000324931756                         0           
       0.560648           -0.000324954125                         0           
       0.561327           -0.000324976992                         0           
       0.562006             0.00156379388             0.00122398529           
       0.562686           -0.000325022528                         0           
       0.563365           -0.000325045387                         0           
       0.564044            -0.00032506813                         0           
       0.564723           -0.000325090823                         0           
       0.565402             0.00199554849             0.00155845821           
       0.566081            -0.00032513551                         0           
       0.566761            -0.00032515817                         0           
       0.567440            -0.00032518129                         0           
       0.568119           -0.000325204227                         0           
       0.568798           -0.000325227486                         0           
       0.569477           -0.000325250596                         0           
       0.570156           -0.000325273819                         0           
       0.570836           -0.000325296954                         0           
       0.571515           -0.000325319599                         0           
       0.572194           -0.000325342902                         0           
       0.572873           -0.000325365671                         0           
       0.573552           -0.000325388306                         0           
       0.574231             -0.0003254114                         0           
       0.574911           -0.000325435077                         0           
       0.575590           -0.000325458297                         0           
       0.576269           -0.000325481447                         0           
       0.576948           -0.000325505042                         0           
       0.577627           -0.000325527916                         0           
       0.578306           -0.000325551114                         0           
       0.578985             0.00168539615             0.00183509296           
       0.579665           -0.000325597771                         0           
       0.580344           -0.000325621384                         0           
       0.581023             0.00220711439             0.00236761335           
       0.581702           -0.000325668341                         0           
       0.582381           -0.000325691498                         0           
       0.583060           -0.000325715347                         0           
       0.583740            -0.00032573882                         0           
       0.584419           -0.000325762371                         0           
       0.585098           -0.000325785894                         0           
       0.585777           -0.000325809601                         0           
       0.586456           -0.000325833693                         0           
       0.587135           -0.000325857145                         0           
       0.587815           -0.000325880343                         0           
       0.588494           -0.000325904265                         0           
       0.589173           -0.000325928735                         0           
       0.589852           -0.000325951906                         0           
       0.590531            -0.00032597595                         0           
       0.591210           -0.000325999439                         0           
       0.591890           -0.000326023381                         0           
       0.592569           -0.000326046523                         0           
       0.593248           -0.000326071824                         0           
       0.593927           -0.000326095879                         0           
       0.594606           -0.000326120429                         0           
       0.595285           -0.000326143517                         0           
       0.595965           -0.000326165061                         0           
       0.596644            -0.00032618723                         0           
