################################################################################
# EDF_DataBlockID                     0.Image.Psd
# EDF_BinarySize                      2105344
# EDF_HeaderSize                      2560
# ByteOrder                           LowByteFirst
# DataType                            FloatValue
# Dim_1                               512
# Dim_2                               1028
# Image                               0
# HeaderID                            EH:000000:000000:000000
# Size                                2105344
# Center_1                            304.9000
# Center_2                            588.7000
# Comment                             Xenocs_Cell_Window - 20251028_20perc_iodine_1.23mg
# DDummy                              0.6
# Date                                2025-11-02T16:30:11
# Delta                               21.910000
# Dummy                               -1.5
# ExposureTime                        360
# Gamma                               15.360000
# Intensity1                          8.82114e-10
# PSize_1                             7.5e-05
# PSize_2                             7.5e-05
# Pressure                            0.0326176
# SampleDistance                      0.115750
# SampleEnvKind                       large
# SampleEnvPN                         ElectroChemical cell
# SampleEnvSN                         1141
# Thickness                           0
# Wavelength                          1.541891e-10
# Wavelength                          1.54189e-10
# aux                                 0
# aux_dial                            0.002375
# beamx                               588.434
# beamx_dial                          588.434
# beamz                               657.808
# beamz_dial                          657.808
# det0x                               0
# det0x_dial                          6.36945
# det0xvd                             0
# det0xvd_dial                        0
# det0y                               450.002
# det0y_dial                          481.635
# det0z                               0
# det0z_dial                          1.23302
# det0zvd                             0
# det0zvd_dial                        0
# mag                                 1.818
# mag_dial                            1.818
# om                                  0.2499
# om_dial                             -0.610199
# phi                                 -0.0120535
# phi_dial                            0
# ry                                  0.599993
# ry_dial                             0.599993
# s1bot                               0.8
# s1bot_dial                          -1.66094
# s1hl                                0.8
# s1hl_dial                           -0.608437
# s1hr                                0.8
# s1hr_dial                           0.970938
# s1top                               0.8
# s1top_dial                          -0.461562
# s2bot                               0.45
# s2bot_dial                          1.36109
# s2hl                                0.45
# s2hl_dial                           -0.83375
# s2hr                                0.45
# s2hr_dial                           -0.118594
# s2top                               0.45
# s2top_dial                          1.44734
# w2theta                             32
# w2theta_dial                        32
# waxsch                              19.2605
# waxsch_dial                         -32.7355
# waxsh                               137.085
# waxsh_dial                          -43.5338
# waxsth                              26.0607
# waxsth_dial                         -19.4086
# waxsz                               67.0407
# waxsz_dial                          -23.7954
# wind                                65.9854
# wind_dial                           66.0041
# wpsi                                124
# wpsi_dial                           124
# wstod                               115
# wstod_dial                          115
# x                                   0
# x_dial                              1.00969
# z                                   0
# z_dial                              13.3172
# CountCutoff                         6807993
# DetectorModel                       Dectris EIGER2 Si 500K, S/N E-01-0554
# ThresholdSetting                    4023.88989258
# Saturation                          0
# FlatField                           Corrected
# BackgroundReductionExtra            0.02
# BackgroundCorrectionConstant        0.0026712
# Detector                            0
# Monitor                             0
# Pil_Roi0                            0
# SumForIntensity1                    3.17561e+08
# TransmittedFlux                     882114
# det                                 0
# mon                                 0
# pilai0                              3.17561e+08
# pilai1                              796326
# pilct0                              5.48364e+08
# pilct1                              796326
# pilroi0                             0
# pilroi1                             0
# sec                                 1
# title                               20251028_20perc_iodine_1.23mg_1_01110.edf
# usaxs0                              0
# Operation                           Azimuthal average I(q)
# Error_model                         ErrorModel.poisson
# Geometrical_correction              True
# Transmission_correction             True
# Thickness_correction                False
# Binning mode                        Uniform
# Binning factor                      1.0
# Psi                                 0.0
# Omega                               0.2499
# MaskInvalidPixels                   True
# DetectorEdge                        3
# MaskFiles                           ['WAXS_corrected.edf']
################################################################################
    q(A⁻¹)                Intensity(a.u.)            Sigma_I(a.u.)            
       0.693100           -2.30165293e-05                         0           
       0.695741             0.00272762206              0.0027973804           
       0.698381             0.00811101758             0.00590894515           
       0.701021           -2.29802825e-05                         0           
       0.703662              0.0137965849             0.00628853864           
       0.706302             0.00485299149             0.00288752567           
       0.708942             0.00556428357             0.00399067878           
       0.711583             0.00636983202             0.00369736161           
       0.714223             0.00564708529             0.00401920383           
       0.716864              0.0157988943             0.00439857487           
       0.719504             0.00712776568             0.00318818272           
       0.722144             0.00731682935             0.00299140199           
       0.724785             0.00930027302             0.00269024955           
       0.727425             0.00285582087             0.00201674156           
       0.730065              0.0098774097             0.00265306272           
       0.732706             0.00739472553             0.00192768362           
       0.735346             0.00846160063             0.00268797423           
       0.737987             0.00724949933             0.00175812568           
       0.740627              0.0103955666             0.00314127874           
       0.743267             0.00635483771             0.00164504122           
       0.745908              0.0050146951             0.00158546093           
       0.748548             0.00846508383             0.00189873057           
       0.751189              0.0116529036             0.00300179698           
       0.753829             0.00720338775             0.00216949045           
       0.756469             0.00847501366             0.00189754855           
       0.759110             0.00850458097             0.00200317867           
       0.761750              0.0107180519             0.00198843692           
       0.764390              0.0112557407             0.00213278166           
       0.767031             0.00941039458             0.00168873862           
       0.769671              0.0089858061             0.00205850383           
       0.772312             0.00654944341              0.0013379094           
       0.774952             0.00745954962             0.00192814872           
       0.777592             0.00740327642             0.00139911495           
       0.780233              0.0084277333             0.00180102847           
       0.782873             0.00736443317             0.00161019132           
       0.785513             0.00806325497             0.00180122012           
       0.788154             0.00642498627             0.00134502874           
       0.790794             0.00524743736             0.00145320917           
       0.793435             0.00649751159             0.00145270773           
       0.796075             0.00542329176              0.0012785048           
       0.798715              0.0037532237             0.00125685694           
       0.801356             0.00616097963             0.00138593998           
       0.803996             0.00649737599             0.00145104624           
       0.806637             0.00942839661              0.0013910521           
       0.809277             0.00599701738             0.00120080769           
       0.811917             0.00609685754             0.00113186982           
       0.814558             0.00561845369             0.00112928021           
       0.817198             0.00718907485             0.00121359801           
       0.819838             0.00587146591             0.00111000219           
       0.822479             0.00578569879             0.00129389065           
       0.825119             0.00711542778              0.0012212762           
       0.827760             0.00581002166             0.00111787978           
       0.830400              0.0066150104             0.00112265598           
       0.833040             0.00645968369             0.00116230663           
       0.835681             0.00676524082             0.00135223386           
       0.838321             0.00859313783             0.00127914502           
       0.840961             0.00788608125             0.00133512064           
       0.843602             0.00772387122             0.00121170271           
       0.846242             0.00906518825             0.00131250872           
       0.848883             0.00816163566             0.00127446866           
       0.851523             0.00620239092             0.00109721465           
       0.854163             0.00743979197             0.00127794334           
       0.856804              0.0060132124               0.001033024           
       0.859444             0.00781417555             0.00115382293           
       0.862085             0.00923607802             0.00130741485           
       0.864725             0.00639776318             0.00111359622           
       0.867365             0.00699905036             0.00108006309           
       0.870006             0.00739109247              0.0010576495           
       0.872646             0.00631770186             0.00102539871           
       0.875286             0.00584305352            0.000948715819           
       0.877927             0.00829493016             0.00109075926           
       0.880567             0.00940602167             0.00120335509           
       0.883208             0.00678419797             0.00101234661           
       0.885848              0.0085897745             0.00118275309           
       0.888488             0.00829075359             0.00108986944           
       0.891129             0.00556001408            0.000916426417           
       0.893769             0.00855589644             0.00108796808           
       0.896410             0.00634300649            0.000873393864           
       0.899050             0.00814054713             0.00108811473           
       0.901690             0.00724684253             0.00111831989           
       0.904331             0.00719060545            0.000987597721           
       0.906971             0.00781856094             0.00109555744           
       0.909611             0.00596017265            0.000870753589           
       0.912252             0.00650959823            0.000939937791           
       0.914892             0.00632017786             0.00101209696           
       0.917533             0.00825106277             0.00109396109           
       0.920173             0.00748118172            0.000966469138           
       0.922813             0.00861997347             0.00108865852           
       0.925454             0.00769238171            0.000926060912           
       0.928094             0.00671647662            0.000923808769           
       0.930734             0.00824821392             0.00110217342           
       0.933375             0.00517755619            0.000864653039           
       0.936015             0.00819402593            0.000987907451           
       0.938656             0.00643431714            0.000939123914           
       0.941296              0.0067672124            0.000872844229           
       0.943936             0.00950882489             0.00101463891           
       0.946577             0.00703410769            0.000866905726           
       0.949217             0.00838984215            0.000870640425           
       0.951858             0.00671601818             0.00081542074           
       0.954498             0.00889786182             0.00108638316           
       0.957138             0.00821034402            0.000988638123           
       0.959779             0.00856854591            0.000995626887           
       0.962419             0.00764030889            0.000933899358           
       0.965059             0.00896446835             0.00106393378           
       0.967700             0.00778155216             0.00101524195           
       0.970340             0.00891838872            0.000961776894           
       0.972981             0.00841440477            0.000851151671           
       0.975621             0.00809400181            0.000888072034           
       0.978261             0.00622936773             0.00074027404           
       0.980902             0.00751360976            0.000972723593           
       0.983542             0.00651067694            0.000801860338           
       0.986182             0.00733746968            0.000835755282           
       0.988823             0.00808122829            0.000851656887           
       0.991463             0.00776984488            0.000890951574           
       0.994104             0.00631212045            0.000783374974           
       0.996744             0.00759606522            0.000876542875           
       0.999384             0.00922555626             0.00086392312           
       1.002025             0.00787342272            0.000890791787           
       1.004665             0.00893096038            0.000867023567           
       1.007306             0.00791122002            0.000811848298           
       1.009946             0.00874291468            0.000870405992           
       1.012586             0.00550960979             0.00067295631           
       1.015227             0.00786605158            0.000863844758           
       1.017867             0.00806762924            0.000840784916           
       1.020507             0.00773142839            0.000797264405           
       1.023148             0.00755053697            0.000850146703           
       1.025788             0.00803281815            0.000804027515           
       1.028429             0.00734376198            0.000805412661           
       1.031069             0.00947944113            0.000861108522           
       1.033709             0.00747486986              0.0008128354           
       1.036350             0.00755523941            0.000733951486           
       1.038990             0.00724224082            0.000731792643           
       1.041630             0.00780835436             0.00079253752           
       1.044271             0.00667384382            0.000689080755           
       1.046911             0.00803374538            0.000795248789           
       1.049552             0.00713180612            0.000787212998           
       1.052192             0.00828148888            0.000774600503           
       1.054832             0.00842068304            0.000788188466           
       1.057473             0.00717656149            0.000717296203           
       1.060113             0.00824854366            0.000749988643           
       1.062754             0.00673225551            0.000691774558           
       1.065394             0.00737448597            0.000765475602           
       1.068034             0.00921808005            0.000778684734           
       1.070675             0.00860838544            0.000784942308           
       1.073315             0.00669797364            0.000702310967           
       1.075955             0.00872965718            0.000756928089           
       1.078596             0.00697199295            0.000718930156           
       1.081236             0.00849936756            0.000760098577           
       1.083877             0.00760060969            0.000712340036           
       1.086517             0.00927765953            0.000843909124           
       1.089157             0.00901118534             0.00086298337           
       1.091798             0.00761900921            0.000695696607           
       1.094438               0.007948698             0.00070829578           
       1.097078             0.00806807262              0.0006844121           
       1.099719             0.00964727522            0.000809511513           
       1.102359             0.00894718516            0.000730091406           
       1.105000              0.0083442258            0.000788396245           
       1.107640             0.00843837027            0.000758075689           
       1.110280             0.00854314022            0.000695966956           
       1.112921             0.00909750114            0.000771494119           
       1.115561             0.00834862304            0.000702413502           
       1.118202             0.00837191654            0.000704055506           
       1.120842             0.00855987661            0.000748227383           
       1.123482             0.00816611746            0.000727623419           
       1.126123             0.00930005877             0.00074479402           
       1.128763              0.0100828734            0.000780823705           
       1.131403             0.00875969305            0.000701286696           
       1.134044             0.00781049995            0.000681407605           
       1.136684              0.0080398111            0.000737086272           
       1.139325              0.0092846003            0.000729676576           
       1.141965             0.00793908188            0.000679196691           
       1.144605             0.00903221842            0.000690763976           
       1.147246              0.0097227506            0.000733462948           
       1.149886              0.0091797117            0.000710155841           
       1.152527             0.00875911561             0.00070378386           
       1.155167              0.0077280921            0.000628775172           
       1.157807              0.0102943183             0.00077808133           
       1.160448              0.0075829737            0.000652123135           
       1.163088             0.00887164454            0.000672811303           
       1.165728             0.00903129706            0.000696976017           
       1.168369             0.00832147103            0.000675206586           
       1.171009             0.00938523122            0.000695893061           
       1.173650             0.00911367436            0.000703744553           
       1.176290             0.00876694273            0.000674507289           
       1.178930             0.00872429545            0.000659468666           
       1.181571             0.00865669647            0.000669935535           
       1.184211             0.00913339196            0.000690573755           
       1.186851              0.0102843185            0.000716441928           
       1.189492             0.00955090194            0.000685778445           
       1.192132             0.00850927141            0.000640040552           
       1.194773             0.00889141026             0.00065711297           
       1.197413              0.0103602165            0.000679624173           
       1.200053             0.00914736977            0.000654831287           
       1.202694             0.00928146942            0.000627254892           
       1.205334             0.00959479038            0.000687299586           
       1.207975              0.0103538545            0.000681503563           
       1.210615             0.00965353583            0.000725943323           
       1.213255             0.00910172604            0.000631212826           
       1.215896             0.00811569669            0.000606841646           
       1.218536              0.0106342594            0.000667935793           
       1.221176              0.0100090147            0.000704511788           
       1.223817             0.00982023378            0.000655070712           
       1.226457              0.0106337077            0.000695395825           
       1.229098             0.00955354524             0.00065909929           
       1.231738             0.00838768132            0.000620614217           
       1.234378             0.00914398469            0.000608884278           
       1.237019             0.00948248212            0.000638957596           
       1.239659             0.00942536785            0.000631481248           
       1.242299             0.00994675771            0.000640470238           
       1.244940             0.00998212331            0.000624003831           
       1.247580             0.00985729672            0.000639053418           
       1.250221              0.0100053384            0.000639861651           
       1.252861              0.0103093756            0.000618337397           
       1.255501              0.0106723887            0.000683114545           
       1.258142             0.00890995368            0.000586516387           
       1.260782               0.010624169            0.000654314634           
       1.263423             0.00978173213             0.00060328052           
       1.266063                0.01129626            0.000664493108           
       1.268703              0.0100162246            0.000620520785           
       1.271344              0.0102257429            0.000648225901           
       1.273984              0.0109277571            0.000647191628           
       1.276624              0.0102547289            0.000615166906           
       1.279265             0.00992886932             0.00061536626           
       1.281905             0.00990160484            0.000617248124           
       1.284546              0.0114648658            0.000641998593           
       1.287186              0.0105168837            0.000603266356           
       1.289826              0.0104916287            0.000635029496           
       1.292467              0.0102091047            0.000612623508           
       1.295107              0.0101794795            0.000605657275           
       1.297747              0.0114104031            0.000613605001           
       1.300388              0.0124581464            0.000698943235           
       1.303028              0.0104990281            0.000612545672           
       1.305669               0.010860494            0.000637835183           
       1.308309              0.0110557741            0.000637206626           
       1.310949               0.011125588            0.000638572952           
       1.313590               0.010793255            0.000609302541           
       1.316230             0.00973478858            0.000617505693           
       1.318871             0.00874104331            0.000573072194           
       1.321511               0.010747665            0.000623676607           
       1.324151              0.0113701448            0.000622465736           
       1.326792              0.0115553385            0.000631394077           
       1.329432                0.01180832            0.000633764092           
       1.332072              0.0108338571            0.000598004008           
       1.334713              0.0101419877            0.000597166645           
       1.337353              0.0103426757            0.000578333161           
       1.339994              0.0119772649            0.000653103012           
       1.342634              0.0108272623            0.000595459672           
       1.345274              0.0120865219            0.000651095376           
       1.347915               0.011009046            0.000604236686           
       1.350555              0.0117407218            0.000634921408           
       1.353195              0.0113839148             0.00062826983           
       1.355836              0.0113502376            0.000617557646           
       1.358476               0.011272391            0.000597682005           
       1.361117               0.011348401            0.000600516863           
       1.363757              0.0107141283            0.000601310584           
       1.366397              0.0119032553            0.000614621953           
       1.369038              0.0110419924            0.000597863303           
       1.371678              0.0120398013            0.000618788302           
       1.374319             0.00939400074             0.00054187846           
       1.376959              0.0121780246            0.000610766778           
       1.379599               0.011569689            0.000637998874           
       1.382240              0.0110692663            0.000586512106           
       1.384880              0.0113566573            0.000629262651           
       1.387520              0.0113548366            0.000597582249           
       1.390161              0.0115867103            0.000573325277           
       1.392801              0.0113883346             0.00059221369           
       1.395442              0.0112039136            0.000595421531           
       1.398082              0.0101450952            0.000530585402           
       1.400722              0.0103763829            0.000562075609           
       1.403363              0.0112572157             0.00061625361           
       1.406003              0.0105089951            0.000557234631           
       1.408644              0.0106257288            0.000586972639           
       1.411284               0.011480331             0.00057773009           
       1.413924               0.010471586            0.000549719292           
       1.416565              0.0099867004            0.000534732326           
       1.419205              0.0111259995            0.000588770027           
       1.421845              0.0114806591            0.000597729241           
       1.424486              0.0120448242            0.000588502862           
       1.427126              0.0109472969            0.000582822755           
       1.429767              0.0111147341            0.000552543036           
       1.432407              0.0116402615            0.000591761718           
       1.435047                 0.0110023            0.000540318194           
       1.437688              0.0115312404            0.000561424369           
       1.440328               0.010639883              0.0005504051           
       1.442968              0.0102180816            0.000551470025           
       1.445609              0.0109268689            0.000552185317           
       1.448249              0.0110311365            0.000568861131           
       1.450890               0.010943828            0.000562907256           
       1.453530              0.0105391509            0.000577923313           
       1.456170             0.00996441069            0.000545380053           
       1.458811              0.0105159878            0.000535743456           
       1.461451              0.0108172446            0.000544788503           
       1.464092              0.0109189047            0.000550920894           
       1.466732              0.0111828908             0.00055274983           
       1.469372              0.0100563046            0.000511901192           
       1.472013              0.0108459335             0.00057336159           
       1.474653              0.0105849076            0.000557682359           
       1.477293                0.01059251            0.000569640902           
       1.479934              0.0113644425            0.000563014081           
       1.482574             0.00965662025            0.000502040323           
       1.485215              0.0103407033            0.000529194705           
       1.487855              0.0107268558            0.000546095094           
       1.490495               0.011118119            0.000553917764           
       1.493136               0.011109403            0.000546111091           
       1.495776              0.0116181614            0.000555932849           
       1.498416              0.0108734262            0.000555415801           
       1.501057              0.0116945285            0.000563310874           
       1.503697              0.0107808001            0.000528773766           
       1.506338              0.0108830379            0.000540983373           
       1.508978              0.0100385682            0.000514461182           
       1.511618              0.0106703211            0.000564875954           
       1.514259              0.0106551342            0.000544973032           
       1.516899              0.0112381962            0.000544947892           
       1.519540              0.0100129581             0.00052267933           
       1.522180               0.010706228             0.00054521873           
       1.524820              0.0103904619            0.000534104815           
       1.527461              0.0103941014             0.00053684032           
       1.530101             0.00981543652            0.000516465345           
       1.532741              0.0104772828            0.000530497074           
       1.535382              0.0106769468            0.000544149366           
       1.538022              0.0105883181             0.00051048547           
       1.540663              0.0102692851            0.000540723635           
       1.543303              0.0103804975            0.000504782012           
       1.545943             0.00981768401            0.000519588915           
       1.548584              0.0113733302            0.000569279949           
       1.551224              0.0106454768            0.000509232286           
       1.553864              0.0101898316            0.000526457336           
       1.556505              0.0106455124            0.000519818497           
       1.559145              0.0108852057            0.000532077027           
       1.561786              0.0103381164            0.000518932945           
       1.564426              0.0104627476            0.000505813613           
       1.567066              0.0100709674            0.000519977969           
       1.569707             0.00978749503            0.000503399655           
       1.572347              0.0102423324            0.000532008927           
       1.574988             0.00976289591            0.000494389537           
       1.577628             0.00949580432            0.000508425643           
       1.580268             0.00992224562            0.000503549996           
       1.582909             0.00932360566            0.000517391311           
       1.585549              0.0100055432             0.00052041817           
       1.588189              0.0101684816             0.00051318808           
       1.590830              0.0100166511            0.000508703061           
       1.593470             0.00986865501            0.000524924222           
       1.596111              0.0101647069            0.000520119443           
       1.598751              0.0103426477            0.000508370426           
       1.601391              0.0102074305            0.000516178834           
       1.604032             0.00957012878            0.000510253824           
       1.606672             0.00906736693            0.000482562106           
       1.609312             0.00894173642            0.000500236523           
       1.611953             0.00936966773            0.000501089216           
       1.614593             0.00906645854            0.000483510318           
       1.617234             0.00923360244            0.000505696734           
       1.619874             0.00860156199            0.000486154436           
       1.622514             0.00889221765            0.000487557046           
       1.625155             0.00889213137            0.000490434908           
       1.627795              0.0089917689            0.000481091278           
       1.630436             0.00941549592            0.000489725628           
       1.633076             0.00921192498            0.000490755692           
       1.635716             0.00967775183            0.000495184471           
       1.638357             0.00942704392            0.000490016573           
       1.640997             0.00886483201            0.000489574285           
       1.643637             0.00925869114            0.000486879274           
       1.646278             0.00943745854            0.000507001924           
       1.648918             0.00939366075            0.000507203954           
       1.651559             0.00945101659            0.000512698694           
       1.654199              0.0081367379            0.000462675973           
       1.656839             0.00933942133            0.000495864866           
       1.659480              0.0100133394            0.000532724463           
       1.662120             0.00936185363            0.000485142187           
       1.664761             0.00950532059            0.000507784156           
       1.667401             0.00854887253            0.000460268013           
       1.670041             0.00899127188            0.000479224454           
       1.672682              0.0083328648            0.000459448534           
       1.675322             0.00934003471            0.000483294894           
       1.677962             0.00864319952            0.000459788162           
       1.680603             0.00953508431            0.000484414534           
       1.683243             0.00866028666            0.000481654762           
       1.685884             0.00935659431            0.000504340621           
       1.688524             0.00926451226            0.000492151891           
       1.691164             0.00831233818            0.000466281347           
       1.693805             0.00869118154            0.000482026299           
       1.696445              0.0084658581            0.000478496489           
       1.699085             0.00886911844            0.000473349259           
       1.701726             0.00844268968            0.000444892325           
       1.704366             0.00890638378            0.000481380442           
       1.707007             0.00924841404            0.000479601959           
       1.709647             0.00815726668            0.000455508709           
       1.712287             0.00890684716            0.000480120448           
       1.714928             0.00911196333            0.000489532673           
       1.717568             0.00853357737            0.000446266205           
       1.720209             0.00929416462            0.000487819198           
       1.722849             0.00887785545             0.00047431759           
       1.725489             0.00870758652            0.000470141529           
       1.728130             0.00880078469            0.000502295371           
       1.730770             0.00842474159            0.000466742661           
       1.733410             0.00848736957            0.000461110327           
       1.736051             0.00858212177            0.000466904483           
       1.738691             0.00809166962            0.000444176534           
       1.741332             0.00810409352            0.000457515376           
       1.743972             0.00873639738            0.000490547591           
       1.746612             0.00818149339             0.00045584563           
       1.749253             0.00863822327            0.000477646658           
       1.751893              0.0090300733            0.000484775444           
       1.754533             0.00903082568            0.000484342897           
       1.757174             0.00786793369            0.000447850892           
       1.759814             0.00820015154            0.000450277837           
       1.762455             0.00825157832            0.000459981515           
       1.765095             0.00817859288            0.000438077891           
       1.767735             0.00803616661            0.000447643183           
       1.770376             0.00841113008            0.000459174854           
       1.773016             0.00843281019            0.000456686608           
       1.775657             0.00854541134            0.000453110684           
       1.778297             0.00837846081            0.000444799295           
       1.780937             0.00882375046            0.000481799856           
       1.783578             0.00832224893            0.000456208252           
       1.786218             0.00762461384            0.000455711194           
       1.788858             0.00820254431            0.000448919373           
       1.791499             0.00808754493            0.000440755036           
       1.794139             0.00888303094            0.000458175259           
       1.796780             0.00837231514            0.000442664887           
       1.799420             0.00904417322            0.000457535743           
       1.802060             0.00843798343            0.000445506208           
       1.804701             0.00975293532             0.00045963483           
       1.807341             0.00976213833             0.00048320405           
       1.809981             0.00891059047            0.000463187548           
       1.812622             0.00936566019            0.000466318758           
       1.815262              0.0088138347            0.000461981872           
       1.817903             0.00961707398            0.000475423809           
       1.820543              0.0083074142            0.000448753124           
       1.823183             0.00837187335            0.000450243093           
       1.825824              0.0089370897            0.000444427185           
       1.828464             0.00973478364            0.000483570482           
       1.831105             0.00843883423            0.000437785559           
       1.833745             0.00795247886            0.000434059256           
       1.836385             0.00770884574             0.00043955474           
       1.839026              0.0085178136            0.000460583157           
       1.841666             0.00792751427            0.000442761437           
       1.844306             0.00865454417            0.000449996117           
       1.846947             0.00808133938            0.000438650533           
       1.849587             0.00841435142            0.000494255759           
       1.852228             0.00849021824            0.000448940006           
       1.854868             0.00786116297             0.00045633206           
       1.857508             0.00793651179            0.000454016748           
       1.860149             0.00885140943            0.000488183327           
       1.862789             0.00775557889            0.000441077818           
       1.865429              0.0082459045            0.000474749051           
       1.868070              0.0088258828            0.000484614862           
       1.870710             0.00849006278             0.00046434781           
       1.873351             0.00845634409            0.000469153791           
       1.875991             0.00849183931            0.000477810129           
       1.878631             0.00802661931            0.000455640604           
       1.881272             0.00892088316            0.000477133956           
       1.883912             0.00801186384            0.000470579009           
       1.886553             0.00836283102            0.000475400536           
       1.889193             0.00729232158            0.000443172919           
       1.891833             0.00794090169            0.000480283898           
       1.894474             0.00848492852            0.000492139674           
       1.897114             0.00727042685            0.000440834536           
       1.899754             0.00802895607             0.00046519874           
       1.902395             0.00789436246            0.000452264438           
       1.905035             0.00839354072            0.000493936589           
       1.907676              0.0082299955            0.000460978969           
       1.910316             0.00745770072            0.000450468698           
       1.912956              0.0074671782             0.00044083818           
       1.915597             0.00801845629            0.000459374392           
       1.918237             0.00864526377            0.000492616025           
       1.920878             0.00809492057            0.000474727303           
       1.923518             0.00764210394            0.000461454212           
       1.926158             0.00822481482            0.000472511856           
       1.928799              0.0075451994            0.000447330598           
       1.931439             0.00878830192            0.000495438787           
       1.934079             0.00800326573            0.000492875183           
       1.936720             0.00791318359            0.000454085877           
       1.939360             0.00796850252            0.000486136677           
       1.942001              0.0079689425            0.000445581473           
       1.944641             0.00815026759            0.000459498583           
       1.947281             0.00856969882            0.000466830637           
       1.949922             0.00851395442            0.000480623899           
       1.952562             0.00746425041            0.000464127212           
       1.955202             0.00756261279             0.00046660582           
       1.957843             0.00775226298            0.000460168993           
       1.960483             0.00748299802            0.000472676921           
       1.963124             0.00789255727            0.000475480877           
       1.965764             0.00921368767            0.000484468474           
       1.968404             0.00796351762            0.000446147394           
       1.971045              0.0076889465            0.000446960286           
       1.973685             0.00792596551             0.00047599916           
       1.976326             0.00769526978            0.000462574619           
       1.978966             0.00747213064             0.00045981886           
       1.981606             0.00819371055            0.000491551691           
       1.984247              0.0072473283            0.000459254215           
       1.986887             0.00723938915            0.000453504282           
       1.989527             0.00776216372            0.000464536003           
       1.992168             0.00698778806            0.000457321293           
       1.994808             0.00729615786            0.000465299978           
       1.997449             0.00776692136            0.000470217317           
       2.000089             0.00805621131            0.000476995555           
       2.002729             0.00810633284            0.000478763924           
       2.005370             0.00735366712            0.000451089781           
       2.008010             0.00765424256            0.000480301809           
       2.010650             0.00737333113            0.000474923418           
       2.013291              0.0081722186            0.000479713156           
       2.015931             0.00739736261             0.00045317841           
       2.018572             0.00824448837            0.000511719304           
       2.021212             0.00770103988            0.000485680688           
       2.023852             0.00844232102            0.000481289163           
       2.026493             0.00728821483            0.000467162688           
       2.029133             0.00743653595            0.000462395939           
       2.031774             0.00696712553            0.000469708841           
       2.034414             0.00876756031             0.00048483582           
       2.037054             0.00749867207              0.0004597463           
       2.039695             0.00724441988            0.000448472052           
       2.042335             0.00716209366            0.000463405171           
       2.044975              0.0072888117            0.000461817348           
       2.047616             0.00809528265            0.000485487139           
       2.050256             0.00827368398            0.000495452281           
       2.052897              0.0075003213            0.000480425295           
       2.055537             0.00723126974            0.000455908812           
       2.058177             0.00680374125            0.000433058827           
       2.060818             0.00716013134            0.000465392777           
       2.063458             0.00750813049            0.000496631392           
       2.066098             0.00738344711            0.000464583506           
       2.068739             0.00810205534             0.00049423164           
       2.071379             0.00707437396             0.00047386901           
       2.074020             0.00750017956            0.000477317801           
       2.076660             0.00715544761            0.000469988148           
       2.079300             0.00825380613            0.000517140378           
       2.081941             0.00714819621            0.000440648134           
       2.084581             0.00734310776            0.000471406871           
       2.087222             0.00790946261            0.000471833356           
       2.089862             0.00844167771            0.000530906768           
       2.092502              0.0070931293            0.000471744315           
       2.095143             0.00710259784            0.000487471596           
       2.097783             0.00673859119            0.000459701716           
       2.100423             0.00736453727            0.000463081583           
       2.103064             0.00742539437            0.000482490641           
       2.105704             0.00776417999            0.000490930948           
       2.108345             0.00759136852            0.000466374911           
       2.110985             0.00768815297            0.000501287445           
       2.113625             0.00657902211            0.000467767347           
       2.116266             0.00791274332            0.000520272753           
       2.118906             0.00701602293            0.000456565244           
       2.121546             0.00696090974            0.000446085543           
       2.124187              0.0077162964            0.000493004787           
       2.126827             0.00779762662            0.000501127348           
       2.129468             0.00741945624            0.000490073077           
       2.132108               0.007359845             0.00047488452           
       2.134748             0.00695727215            0.000459922789           
       2.137389             0.00780413997            0.000508177792           
       2.140029             0.00828694207            0.000468813372           
       2.142670             0.00711393715            0.000464218471           
       2.145310             0.00758105502            0.000466430505           
       2.147950             0.00744827724            0.000475861328           
       2.150591             0.00820735381            0.000494473177           
       2.153231             0.00780726399             0.00049642238           
       2.155871             0.00777762524            0.000478665857           
       2.158512             0.00712095851            0.000477904491           
       2.161152             0.00758810109             0.00047787122           
       2.163793             0.00796391709            0.000487358027           
       2.166433             0.00726468348            0.000477990207           
       2.169073              0.0067487874            0.000450448763           
       2.171714             0.00609472234            0.000424864783           
       2.174354              0.0075065483            0.000492687805           
       2.176995             0.00727434014            0.000482966726           
       2.179635             0.00778793283            0.000528067517           
       2.182275             0.00714318261            0.000477495431           
       2.184916             0.00775541825            0.000480556755           
       2.187556             0.00811923441            0.000486771099           
       2.190196             0.00813159171            0.000509056186           
       2.192837               0.006714102            0.000460047352           
       2.195477             0.00733774216            0.000458517998           
       2.198118             0.00750379342            0.000475558094           
       2.200758             0.00698475837            0.000470717673           
       2.203398             0.00703748194              0.0004755136           
       2.206039             0.00765254054            0.000469287393           
       2.208679             0.00744392484            0.000473618305           
       2.211319             0.00746135296            0.000476906485           
       2.213960             0.00623952166            0.000441957256           
       2.216600             0.00694614053            0.000482389155           
       2.219241             0.00695809793            0.000461430335           
       2.221881             0.00780885198            0.000489831249           
       2.224521             0.00739535747            0.000482527327           
       2.227162             0.00723315066            0.000467651425           
       2.229802             0.00751038806            0.000491446659           
       2.232443             0.00801199859             0.00049958679           
       2.235083             0.00813566481            0.000518277357           
       2.237723              0.0078467827            0.000488452361           
       2.240364             0.00770088471            0.000495811064           
       2.243004             0.00837183565            0.000512832547           
       2.245644             0.00651147125            0.000456804345           
       2.248285             0.00699577129            0.000464002086           
       2.250925             0.00644734808            0.000448149458           
       2.253566             0.00729938703            0.000509781788           
       2.256206             0.00691357132            0.000486206326           
       2.258846             0.00764400608            0.000486336331           
       2.261487             0.00734802001            0.000500474777           
       2.264127             0.00725411826            0.000480252274           
       2.266767             0.00613187002            0.000453307521           
       2.269408               0.007889252            0.000516284614           
       2.272048             0.00770621638            0.000507214596           
       2.274689             0.00775381683            0.000515482523           
       2.277329             0.00705257547            0.000462892452           
       2.279969             0.00712415527            0.000495216626           
       2.282610             0.00692980462            0.000474830881           
       2.285250             0.00714409906            0.000461451217           
       2.287891             0.00677847751            0.000481919047           
       2.290531             0.00743459604            0.000511488524           
       2.293171             0.00709190614            0.000486617776           
       2.295812             0.00845119801            0.000529073957           
       2.298452             0.00702541986            0.000504446045           
       2.301092             0.00679028556             0.00046078226           
       2.303733             0.00680147649            0.000479769378           
       2.306373             0.00674493301            0.000485295134           
       2.309014             0.00794781888            0.000516517767           
       2.311654             0.00651184146            0.000487893911           
       2.314294             0.00702458325            0.000466859909           
       2.316935             0.00785731678            0.000495797107           
       2.319575             0.00694722781              0.0004884701           
       2.322215             0.00734861456            0.000523567914           
       2.324856             0.00723234273            0.000477543057           
       2.327496             0.00708777189            0.000502677493           
       2.330137             0.00711989011            0.000482113405           
       2.332777             0.00687893064            0.000488626031           
       2.335417             0.00732021071            0.000489008714           
       2.338058             0.00679337954            0.000485155631           
       2.340698             0.00703253862             0.00048974257           
       2.343339             0.00706058387            0.000501516837           
       2.345979             0.00733888571            0.000483735457           
       2.348619             0.00740368393            0.000503626473           
       2.351260             0.00720382625            0.000493888057           
       2.353900             0.00785348943             0.00051404401           
       2.356540             0.00667790769            0.000473338955           
       2.359181             0.00714001467            0.000482580669           
       2.361821              0.0071513448            0.000466529782           
       2.364462             0.00744216402            0.000497754121           
       2.367102             0.00788504526            0.000526522309           
       2.369742              0.0072597996            0.000531774613           
       2.372383               0.007193711            0.000479323862           
       2.375023             0.00727855361            0.000506835875           
       2.377663             0.00703847787            0.000476550327           
       2.380304             0.00667476739            0.000471812124           
       2.382944             0.00692918103            0.000457870365           
       2.385585             0.00712255267            0.000495093579           
       2.388225             0.00767139127            0.000511400309           
       2.390865             0.00658528191            0.000468950346           
       2.393506             0.00735555377            0.000486267912           
       2.396146             0.00639486843            0.000490239039           
       2.398787             0.00746394443            0.000488099313           
       2.401427             0.00689441253            0.000452797151           
       2.404067             0.00643536196            0.000447221095           
       2.406708             0.00759281962            0.000479952167           
       2.409348             0.00734247716            0.000500620345           
       2.411988             0.00681535996              0.0004725629           
       2.414629             0.00693853994            0.000491664127           
       2.417269             0.00709565758            0.000503004575           
       2.419910             0.00706259073            0.000502995643           
       2.422550             0.00632277711              0.0004553332           
       2.425190             0.00667892917            0.000493301501           
       2.427831             0.00695245234            0.000500472039           
       2.430471             0.00730484207             0.00048873031           
       2.433112             0.00731682787            0.000476297099           
       2.435752             0.00685151311            0.000487779529           
       2.438392             0.00665234705            0.000463913532           
       2.441033             0.00676580374            0.000495829993           
       2.443673             0.00688034658            0.000500393894           
       2.446313              0.0070719358            0.000507760303           
       2.448954             0.00737326077            0.000493651089           
       2.451594             0.00781672348            0.000546519338           
       2.454235             0.00685851234            0.000480318325           
       2.456875              0.0071766098            0.000514107965           
       2.459515             0.00778431758            0.000549293689           
       2.462156             0.00697331493            0.000490851405           
       2.464796              0.0072800824            0.000495061292           
       2.467436             0.00831695293            0.000547195871           
       2.470077             0.00862926728            0.000528290534           
       2.472717              0.0070685202            0.000480205719           
       2.475358              0.0078517027            0.000511387338           
       2.477998             0.00753388979            0.000492485758           
       2.480638             0.00765904079            0.000505382832           
       2.483279             0.00736206603            0.000517863956           
       2.485919              0.0077051508            0.000510576903           
       2.488560             0.00733509119             0.00049677321           
       2.491200             0.00698839268             0.00049930951           
       2.493840             0.00710845789            0.000532854091           
       2.496481             0.00686387211            0.000515041641           
       2.499121             0.00753392931            0.000524843047           
       2.501761             0.00701973711            0.000513328647           
       2.504402             0.00678160912            0.000497175397           
       2.507042             0.00855529215            0.000554282897           
       2.509683             0.00787783326             0.00052375558           
       2.512323             0.00649411217            0.000499432968           
       2.514963             0.00773996382            0.000538502698           
       2.517604             0.00697372568            0.000530399767           
       2.520244             0.00737908461             0.00051149838           
       2.522884             0.00710993664            0.000509263691           
       2.525525              0.0107907678            0.000634508706           
       2.528165             0.00788636848            0.000533982444           
       2.530806             0.00797913721             0.00054647595           
       2.533446             0.00730993537            0.000511893683           
       2.536086             0.00778595403            0.000523569475           
       2.538727             0.00725841868             0.00048497079           
       2.541367             0.00682291139            0.000474828211           
       2.544008             0.00721320391            0.000504212299           
       2.546648             0.00608244462            0.000470949742           
       2.549288             0.00784859667            0.000545873048           
       2.551929             0.00676042225            0.000498544657           
       2.554569             0.00644193996            0.000468856004           
       2.557209             0.00618173538            0.000463507334           
       2.559850             0.00733741811            0.000506600269           
       2.562490             0.00731579148            0.000522826371           
       2.565131             0.00743193886            0.000546376157           
       2.567771             0.00739029673            0.000525310744           
       2.570411             0.00636625208            0.000482283769           
       2.573052             0.00700185428            0.000512156213           
       2.575692             0.00707100906            0.000511562552           
       2.578332             0.00731377457            0.000522421509           
       2.580973             0.00715064567            0.000511647598           
       2.583613             0.00677140961            0.000486039752           
       2.586254             0.00584373611             0.00045089307           
       2.588894             0.00709043552            0.000515764275           
       2.591534             0.00671664459            0.000519648965           
       2.594175             0.00754797094            0.000540474621           
       2.596815             0.00732077921            0.000535416855           
       2.599456             0.00690934256              0.0004932594           
       2.602096             0.00804383987            0.000536267309           
       2.604736             0.00656098386            0.000495806223           
       2.607377             0.00717123442            0.000504691348           
       2.610017             0.00671794428            0.000479932119           
       2.612657             0.00624468391            0.000492170878           
       2.615298             0.00665676526            0.000496114686           
       2.617938             0.00711568185            0.000548704801           
       2.620579             0.00732588694             0.00053447483           
       2.623219             0.00724038696            0.000530589344           
       2.625859             0.00683634505            0.000501280943           
       2.628500             0.00838804116            0.000551624421           
       2.631140              0.0065884083            0.000496414168           
       2.633780             0.00668254246            0.000499513321           
       2.636421             0.00799076303            0.000559656124           
       2.639061             0.00714741616            0.000498274854           
       2.641702               0.006360499            0.000480927488           
       2.644342             0.00688986851            0.000502673579           
       2.646982             0.00773209254            0.000524550723           
       2.649623             0.00725404032            0.000532443579           
       2.652263             0.00723677304            0.000526472808           
       2.654904             0.00764521229            0.000541670193           
       2.657544             0.00653446622            0.000471680912           
       2.660184             0.00736491927            0.000529946982           
       2.662825             0.00666034895            0.000515652802           
       2.665465             0.00718034811            0.000517823888           
       2.668105             0.00755578555            0.000559893659           
       2.670746             0.00708390247            0.000500810877           
       2.673386             0.00837212546             0.00056109592           
       2.676027             0.00824395783            0.000547848494           
       2.678667              0.0100944307            0.000591523596           
       2.681307              0.0119425576            0.000632175308           
       2.683948               0.014679271            0.000720117459           
       2.686588              0.0121062231            0.000643121282           
       2.689229             0.00977009145            0.000564550685           
       2.691869             0.00906318195            0.000574682673           
       2.694509             0.00864858152            0.000561692687           
       2.697150             0.00784107184            0.000526150838           
       2.699790             0.00709840641            0.000524821849           
       2.702430             0.00637730582            0.000475503127           
       2.705071             0.00713965606            0.000519881746           
       2.707711             0.00753342961             0.00051831212           
       2.710352             0.00733150272            0.000540271981           
       2.712992             0.00693717431            0.000535259062           
       2.715632             0.00679444923            0.000491479007           
       2.718273             0.00694270982            0.000514879098           
       2.720913             0.00659233992             0.00050029145           
       2.723553             0.00723705972             0.00052770175           
       2.726194             0.00723105093            0.000551393221           
       2.728834             0.00901086309            0.000615811249           
       2.731475             0.00751620851            0.000519068021           
       2.734115             0.00662339674            0.000502387515           
       2.736755             0.00725031234            0.000529952289           
       2.739396             0.00631188464            0.000491602845           
       2.742036             0.00645516911            0.000520300513           
       2.744677             0.00718743544            0.000532699832           
       2.747317             0.00750906359            0.000540605599           
       2.749957             0.00742243882            0.000541250264           
       2.752598             0.00785898937            0.000562983895           
       2.755238             0.00826029714            0.000587598294           
       2.757878             0.00694149466            0.000533943556           
       2.760519             0.00855112311            0.000586341887           
       2.763159              0.0114213164            0.000670865689           
       2.765800             0.00866039816            0.000556714101           
       2.768440             0.00754439041             0.00052343534           
       2.771080             0.00804867508            0.000545159037           
       2.773721             0.00683389549            0.000515295413           
       2.776361              0.0074002021            0.000543618802           
       2.779001             0.00833664746            0.000597531759           
       2.781642             0.00751003274            0.000562955157           
       2.784282             0.00656777139            0.000535112791           
       2.786923             0.00696014134            0.000555715465           
       2.789563             0.00694493693            0.000534634351           
       2.792203             0.00645758306            0.000492482632           
       2.794844             0.00661579956             0.00054632512           
       2.797484             0.00683109789            0.000523920017           
       2.800125              0.0060286766             0.00051753551           
       2.802765             0.00738118202             0.00056280218           
       2.805405             0.00758816684            0.000572570126           
       2.808046              0.0075955947             0.00058292073           
       2.810686             0.00596455387            0.000474655091           
       2.813326             0.00812083016            0.000575293606           
       2.815967             0.00784762158             0.00058161328           
       2.818607             0.00615352111            0.000491473709           
       2.821248             0.00710274213            0.000517059112           
       2.823888             0.00718308493            0.000539747489           
       2.826528              0.0063387233            0.000491036183           
       2.829169             0.00700983678            0.000540875542           
       2.831809             0.00724344356            0.000557292843           
       2.834449             0.00716088463            0.000557609599           
       2.837090              0.0066818024            0.000520234961           
       2.839730             0.00674524204            0.000520146739           
       2.842371             0.00668145434            0.000518428605           
       2.845011              0.0071036577            0.000538818501           
       2.847651              0.0072985509            0.000546830663           
       2.850292              0.0064726258            0.000520015435           
       2.852932             0.00697773966            0.000551691679           
       2.855573              0.0055273882            0.000476303085           
       2.858213             0.00633774547            0.000535587295           
       2.860853             0.00675982737            0.000514542071           
       2.863494             0.00682245342            0.000535198589           
       2.866134             0.00666223122            0.000549701882           
       2.868774             0.00603316944            0.000514106485           
       2.871415             0.00540911499            0.000494374489           
       2.874055             0.00552854919            0.000477749162           
       2.876696             0.00661792061            0.000536841541           
       2.879336             0.00714588433             0.00053765506           
       2.881976             0.00743466397             0.00056564848           
       2.884617             0.00662090449            0.000525955544           
       2.887257             0.00746905552            0.000561512065           
       2.889897             0.00674997997             0.00052281257           
       2.892538             0.00665543076             0.00056871763           
       2.895178             0.00627303863            0.000498819835           
       2.897819             0.00696061581            0.000536005719           
       2.900459             0.00674038803            0.000517197461           
       2.903099             0.00675411159            0.000512424218           
       2.905740             0.00679321214            0.000527201196           
       2.908380             0.00707042575            0.000543961734           
       2.911021              0.0070883151            0.000553504577           
       2.913661              0.0065958588            0.000533771341           
       2.916301             0.00688442513            0.000545842543           
       2.918942             0.00709252707            0.000529944247           
       2.921582             0.00619306202            0.000518123964           
       2.924222             0.00751679556            0.000553012444           
       2.926863             0.00720207162            0.000563838406           
       2.929503             0.00759809864            0.000585994357           
       2.932144             0.00896109948            0.000610893051           
       2.934784             0.00803407349            0.000568947536           
       2.937424             0.00645974868            0.000515404511           
       2.940065             0.00752015291            0.000530467892           
       2.942705             0.00691682667            0.000508105633           
       2.945346              0.0074875924            0.000561035864           
       2.947986             0.00704652863            0.000554957772           
       2.950626             0.00674792735            0.000540014454           
       2.953267             0.00720777815            0.000549093809           
       2.955907             0.00664814531            0.000547049552           
       2.958547             0.00645868264             0.00050903071           
       2.961188             0.00575451005            0.000501275802           
       2.963828             0.00776161465            0.000569468281           
       2.966469             0.00688346814            0.000526095551           
       2.969109             0.00653171256            0.000520070284           
       2.971749             0.00690558949            0.000531411712           
       2.974390             0.00762107982            0.000548595752           
       2.977030             0.00660324678            0.000522061654           
       2.979670             0.00823655555            0.000567141509           
       2.982311             0.00941776661            0.000628551407           
       2.984951             0.00798362795            0.000550411727           
       2.987592             0.00655062244            0.000508559077           
       2.990232              0.0070553725            0.000548894578           
       2.992872             0.00782762832            0.000544589059           
       2.995513             0.00705931656            0.000505964605           
       2.998153              0.0108623515            0.000638170634           
       3.000794              0.0122924781            0.000657567438           
       3.003434              0.0115261541            0.000637702364           
       3.006074              0.0454051094             0.00124795257           
       3.008715               0.118280184             0.00194433065           
       3.011355                0.18176202             0.00232427889           
       3.013995              0.0943727688             0.00167934536           
       3.016636              0.0575995697             0.00128473653           
       3.019276               0.124728602             0.00185836924           
       3.021917               0.468209882             0.00346210678           
       3.024557                1.62968211             0.00635040756           
       3.027197                1.17044512             0.00524694904           
       3.029838               0.508340637             0.00350691897           
       3.032478               0.269982479             0.00255833531           
       3.035118              0.0705707162             0.00132553049           
       3.037759              0.0969281869             0.00155146438           
       3.040399               0.131008231             0.00186056913           
       3.043040               0.515629836             0.00373642685           
       3.045680                0.41321714             0.00314702929           
       3.048320              0.0845670932             0.00145465327           
       3.050961               0.110406339             0.00169138131           
       3.053601              0.0859553263             0.00143734783           
       3.056242              0.0581584896             0.00125704868           
       3.058882              0.0447688604             0.00118307718           
       3.061522              0.0340996963             0.00101302951           
       3.064163              0.0419329374             0.00110922832           
       3.066803               0.103577194             0.00183533325           
       3.069443              0.0994678147             0.00188175111           
       3.072084              0.0572564178               0.001390186           
       3.074724              0.0410887711             0.00131518479           
       3.077365               0.083304886             0.00193853669           
       3.080005              0.0178680407            0.000902882493           
       3.082645             0.00955113191            0.000693467169           
       3.085286              0.0117837221            0.000776341347           
       3.087926             0.00961977908            0.000696039486           
       3.090566              0.0103329346            0.000706811659           
       3.093207              0.0101399368            0.000728609389           
       3.095847             0.00858830526            0.000642711463           
       3.098488                0.00838776            0.000704287246           
       3.101128             0.00863370449            0.000719133394           
       3.103768             0.00847143674            0.000698941692           
       3.106409             0.00953113281            0.000789016488           
       3.109049             0.00805741684             0.00069618525           
       3.111690             0.00748991396            0.000659697909           
       3.114330             0.00839366962             0.00071322179           
       3.116970             0.00788977229            0.000696790635           
       3.119611              0.0118511307            0.000909010119           
       3.122251              0.0224046948              0.0013073864           
       3.124891              0.0342243008              0.0016309038           
       3.127532              0.0238472465              0.0013318284           
       3.130172              0.0121832439            0.000968391266           
       3.132813              0.0101107687            0.000868484338           
       3.135453             0.00777046863            0.000755094532           
       3.138093             0.00739103512            0.000797945905           
       3.140734             0.00571514585            0.000647346931           
       3.143374             0.00672415007            0.000742575245           
       3.146014             0.00702789285            0.000817272273           
       3.148655             0.00681248197            0.000747996453           
       3.151295              0.0054018925             0.00070980162           
       3.153936              0.0066057223            0.000758206917           
       3.156576             0.00541082581            0.000676879761           
       3.159216             0.00607624371            0.000720882003           
       3.161857             0.00778758119            0.000812787087           
       3.164497             0.00785625578            0.000857762275           
       3.167138             0.00878780869            0.000937351219           
       3.169778             0.00586738409            0.000753290525           
       3.172418             0.00566278368            0.000732512657           
       3.175059             0.00631824518            0.000685958533           
       3.177699             0.00566458217            0.000687788194           
       3.180339             0.00729215712            0.000836102516           
       3.182980              0.0056234814            0.000759122757           
       3.185620             0.00435716392            0.000680512429           
       3.188261               0.006619395            0.000853738895           
       3.190901             0.00566937068            0.000726664839           
       3.193541             0.00667925166            0.000828769332           
       3.196182             0.00502246988            0.000748955376           
       3.198822             0.00468196054             0.00072336366           
       3.201463             0.00582741751            0.000793109938           
       3.204103             0.00523504455            0.000747145432           
       3.206743             0.00619394975            0.000812620976           
       3.209384              0.0054621573            0.000824473577           
       3.212024             0.00530994053            0.000757881846           
       3.214664             0.00460889363            0.000802915609           
       3.217305             0.00680162439            0.000927174671           
       3.219945             0.00522673374            0.000836555431           
       3.222586             0.00558725864            0.000823827588           
       3.225226             0.00581727484            0.000932530544           
       3.227866             0.00635614897            0.000890926197           
       3.230507             0.00657874196            0.000939574418           
       3.233147             0.00737196055             0.00100263773           
       3.235787             0.00669721249            0.000977989978           
       3.238428             0.00614477054              0.0010109102           
       3.241068               0.005940552            0.000929411052           
       3.243709             0.00604628998            0.000968737329           
       3.246349              0.0043720032             0.00075093592           
       3.248989             0.00431884315            0.000881280903           
       3.251630             0.00717640154             0.00109395132           
       3.254270             0.00667610984            0.000943000968           
       3.256911             0.00538742321            0.000924293444           
       3.259551             0.00606443915             0.00105575868           
       3.262191             0.00688728473             0.00114923937           
       3.264832             0.00478963707              0.0010013636           
       3.267472             0.00623275213             0.00107160084           
       3.270112             0.00647652117             0.00120719206           
       3.272753             0.00469818054            0.000941120235           
       3.275393             0.00511953726               0.001002407           
       3.278034             0.00741821352             0.00120732124           
       3.280674             0.00578757316              0.0011571955           
       3.283314             0.00461305068            0.000923979245           
       3.285955             0.00650457065             0.00113204765           
       3.288595             0.00564175127             0.00117294323           
       3.291235             0.00461821331             0.00109092909           
       3.293876             0.00526642098             0.00118171752           
       3.296516             0.00390277337            0.000976616222           
       3.299157             0.00501028122             0.00109263919           
       3.301797             0.00590151379             0.00135267384           
       3.304437             0.00722080447             0.00129632247           
       3.307078             0.00479137145             0.00116321225           
       3.309718              0.0038948608             0.00108250601           
       3.312359             0.00572637018             0.00131288658           
       3.314999             0.00554312486             0.00127179365           
       3.317639             0.00428749024             0.00106971989           
       3.320280              0.0066658654             0.00141812443           
       3.322920             0.00369512776             0.00107361745           
       3.325560              0.0065138266             0.00142642151           
       3.328201             0.00684868705             0.00131727147           
       3.330841             0.00676311232              0.0015931542           
       3.333482             0.00470604383             0.00125617399           
       3.336122             0.00602693352             0.00142222924           
       3.338762             0.00446167922             0.00141354875           
       3.341403             0.00650243059             0.00163060346           
       3.344043             0.00337674427             0.00112815331           
       3.346683             0.00391382317             0.00123996864           
       3.349324             0.00548285301             0.00165008694           
       3.351964             0.00384351884             0.00146094239           
       3.354605               0.002899739             0.00145125005           
       3.357245              0.0052226978             0.00175698478           
       3.359885             0.00378715493             0.00119746454           
       3.362526             0.00589951847             0.00186901437           
       3.365166             0.00733536156             0.00196569418           
       3.367807             0.00690459663             0.00244070532           
       3.370447             0.00353430606             0.00144851132           
       3.373087             0.00196402077             0.00115470251           
       3.375728             0.00429830496             0.00192790183           
       3.378368             0.00751097611             0.00378228622           
       3.381008             0.00636461234             0.00259579455           
       3.383649             0.00203511824             0.00117750733           
       3.386289             0.00474183427             0.00212726955           
       3.388930               0.002408941              0.0023983123           
       3.391570           -2.55332847e-05                         0           
       3.394210             0.00768395636              0.0038345778           
       3.396851             0.00476128216             0.00337645421           
       3.399491             0.00473618359             0.00336848998           
       3.402131           -2.56195434e-05                         0           
       3.404772              0.0187494595              0.0134131765           
       3.407412                       nan                       nan           
       3.410053             0.00897870702             0.00929347941           
       3.412693                       nan                       nan           
       3.415333             0.00872285556             0.00916886017           
