################################################################################
# EDF_DataBlockID                     0.Image.Psd
# EDF_BinarySize                      4366944
# EDF_HeaderSize                      2560
# ByteOrder                           LowByteFirst
# DataType                            FloatValue
# Dim_1                               1028
# Dim_2                               1062
# Image                               0
# HeaderID                            EH:000000:000000:000000
# Size                                4366944
# Center_1                            607.5200
# Center_2                            651.5500
# Comment                             Xenocs_Cell_Window - 20251028_20perc_iodine_1.23mg
# DDummy                              0.6
# Date                                2025-10-29T23:08:50
# Delta                               0
# Dummy                               -1.5
# ExposureTime                        360
# Gamma                               0
# Intensity1                          8.45861e-10
# PSize_1                             7.5e-05
# PSize_2                             7.5e-05
# Pressure                            0.0326653
# SampleDistance                      0.450002
# SampleEnvKind                       large
# SampleEnvPN                         ElectroChemical cell
# SampleEnvSN                         1141
# Thickness                           0
# Wavelength                          1.541891e-10
# Wavelength                          1.54189e-10
# aux                                 0
# aux_dial                            0.002375
# beamx                               588.434
# beamx_dial                          588.434
# beamz                               657.808
# beamz_dial                          657.808
# det0x                               0
# det0x_dial                          6.36945
# det0xvd                             0
# det0xvd_dial                        0
# det0y                               450.002
# det0y_dial                          481.635
# det0z                               0
# det0z_dial                          1.23302
# det0zvd                             0
# det0zvd_dial                        0
# mag                                 1.818
# mag_dial                            1.818
# om                                  0.2499
# om_dial                             -0.610199
# phi                                 -0.0120535
# phi_dial                            0
# ry                                  0.599993
# ry_dial                             0.599993
# s1bot                               0.8
# s1bot_dial                          -1.66094
# s1hl                                0.8
# s1hl_dial                           -0.608437
# s1hr                                0.8
# s1hr_dial                           0.970938
# s1top                               0.8
# s1top_dial                          -0.461562
# s2bot                               0.45
# s2bot_dial                          1.36109
# s2hl                                0.45
# s2hl_dial                           -0.83375
# s2hr                                0.45
# s2hr_dial                           -0.118594
# s2top                               0.45
# s2top_dial                          1.44734
# w2theta                             32
# w2theta_dial                        32
# waxsch                              19.2605
# waxsch_dial                         -32.7355
# waxsh                               137.085
# waxsh_dial                          -43.5338
# waxsth                              26.0607
# waxsth_dial                         -19.4086
# waxsz                               67.0407
# waxsz_dial                          -23.7954
# wind                                65.9854
# wind_dial                           66.0041
# wpsi                                124
# wpsi_dial                           124
# wstod                               115
# wstod_dial                          115
# x                                   0
# x_dial                              1.00969
# z                                   0
# z_dial                              13.3172
# CountCutoff                         15302352
# DetectorModel                       Dectris EIGER2 Si 1M, S/N E-02-0362
# ThresholdSetting                    4023.88989258
# Saturation                          0
# FlatField                           Corrected
# BackgroundReductionExtra            0.02
# BackgroundCorrectionConstant        0.0026712
# Detector                            0
# Monitor                             0
# Pil_Roi0                            0
# SumForIntensity1                    3.0451e+08
# TransmittedFlux                     845861
# det                                 0
# mon                                 0
# pilai0                              3.0451e+08
# pilai1                              773166
# pilct0                              5.27152e+08
# pilct1                              773166
# pilroi0                             0
# pilroi1                             0
# sec                                 1
# title                               20251028_20perc_iodine_1.23mg_0_00298.edf
# usaxs0                              0
# Operation                           Azimuthal average I(q)
# Error_model                         ErrorModel.poisson
# Geometrical_correction              True
# Transmission_correction             True
# Thickness_correction                False
# Binning mode                        Uniform
# Binning factor                      1.0
# Psi                                 0.0
# Omega                               0.2499
# MaskInvalidPixels                   True
# DetectorEdge                        3
# MaskFiles                           ['20251028_20perc_iodine_1.23mg_0_00012_mask.edf']
################################################################################
    q(A⁻¹)                Intensity(a.u.)            Sigma_I(a.u.)            
       0.000340                 372006.37                 121.07849           
       0.001019                359121.897                72.8498059           
       0.001698                349930.942                50.8491463           
       0.002377                331169.341                 44.244837           
       0.003056                308008.115                36.0624037           
       0.003735                253412.023                28.8479565           
       0.004415                204844.331                25.9366287           
       0.005094                153025.228                19.4139462           
       0.005773                101024.297                14.6040051           
       0.006452                58857.1021                 10.680406           
       0.007131                 32362.917                7.67221158           
       0.007810                16218.0642                 5.3899055           
       0.008490                8121.13043                3.38082295           
       0.009169                3919.92722                2.32136722           
       0.009848                 1210.6221                1.24728217           
       0.010527                468.121079               0.775603526           
       0.011206                117.325272               0.370586821           
       0.011885                54.6182045               0.234925934           
       0.012564                25.2911376               0.164126309           
       0.013244                16.7287112               0.124791567           
       0.013923                12.5843238               0.109981237           
       0.014602                9.49413658                0.08859645           
       0.015281                7.35452905              0.0793770383           
       0.015960                6.11283658              0.0718480156           
       0.016639                5.01142478              0.0614311456           
       0.017319                4.16217178              0.0551138542           
       0.017998                3.44755548              0.0479874617           
       0.018677                2.95500287              0.0460146634           
       0.019356                2.46706276              0.0415438268           
       0.020035                2.15809768              0.0364540015           
       0.020714                1.90119997              0.0345776753           
       0.021394                1.64692031               0.030450052           
       0.022073                1.43904167               0.029614049           
       0.022752                1.26838587              0.0265962452           
       0.023431                1.09098996              0.0239432061           
       0.024110               0.987575244              0.0237500065           
       0.024789               0.913003587              0.0212077735           
       0.025469               0.792075238              0.0203560787           
       0.026148               0.754632429              0.0186686783           
       0.026827               0.684180183               0.018060341           
       0.027506                0.59252868              0.0170495694           
       0.028185               0.568573127              0.0159271549           
       0.028864                0.54943811              0.0155690007           
       0.029544                0.49343417               0.014307433           
       0.030223               0.433901527              0.0136089949           
       0.030902               0.403928882              0.0132507098           
       0.031581               0.391024775              0.0123934111           
       0.032260               0.346274374               0.011861415           
       0.032939               0.314541268              0.0109003473           
       0.033619               0.312382642              0.0110225285           
       0.034298               0.259389793             0.00977460926           
       0.034977               0.249274555             0.00939381832           
       0.035656               0.239961197              0.0094605903           
       0.036335               0.218431283             0.00875428667           
       0.037014               0.209069629             0.00859018143           
       0.037693               0.208658713              0.0082555165           
       0.038373               0.181637148             0.00777802719           
       0.039052               0.185773072             0.00789955036           
       0.039731               0.151431685             0.00696592109           
       0.040410               0.161629291             0.00714839696           
       0.041089               0.157059798             0.00693624441           
       0.041768               0.137763193             0.00653012572           
       0.042448               0.127778742             0.00624023841           
       0.043127               0.126663846             0.00606621794           
       0.043806                 0.1250315             0.00607194151           
       0.044485               0.111456818             0.00561508586           
       0.045164               0.111439502             0.00572530934           
       0.045843               0.102846601             0.00527530862           
       0.046523               0.103842922             0.00531910357           
       0.047202                0.10879231             0.00548243287           
       0.047881              0.0993530764             0.00513816464           
       0.048560              0.0973694612             0.00513297676           
       0.049239              0.0912511719             0.00477122618           
       0.049918              0.0910571393             0.00485932403           
       0.050598              0.0890209528             0.00473260014           
       0.051277              0.0866887132             0.00465537512           
       0.051956                0.08712082             0.00463765638           
       0.052635              0.0798935687             0.00434688013           
       0.053314              0.0703468487             0.00419816472           
       0.053993              0.0684556327             0.00402776275           
       0.054673              0.0640828916             0.00381019168           
       0.055352              0.0733644397             0.00413667433           
       0.056031              0.0714646385             0.00399697803           
       0.056710              0.0714269939             0.00409384507           
       0.057389              0.0671453567             0.00382758944           
       0.058068              0.0649827408             0.00380426098           
       0.058748              0.0628139513             0.00378689514           
       0.059427              0.0694646857             0.00391490572           
       0.060106              0.0609080541             0.00370056249           
       0.060785              0.0631649659             0.00365558686           
       0.061464              0.0591658349             0.00362325092           
       0.062143              0.0562308889             0.00349636023           
       0.062822              0.0613836258             0.00361017688           
       0.063502              0.0567658782             0.00346552695           
       0.064181              0.0571481841             0.00344045894           
       0.064860              0.0497323668             0.00325836408           
       0.065539              0.0458476564              0.0030979256           
       0.066218              0.0488936968             0.00313068106           
       0.066897              0.0463195185             0.00307067701           
       0.067577              0.0478683866             0.00315158451           
       0.068256              0.0474772748              0.0032157833           
       0.068935              0.0506344638             0.00326728711           
       0.069614              0.0483837701             0.00322564066           
       0.070293              0.0409939767             0.00299648756           
       0.070972              0.0430469781             0.00304812133           
       0.071652              0.0479837015             0.00322406397           
       0.072331               0.044909595             0.00306348946           
       0.073010              0.0352524484             0.00277621433           
       0.073689              0.0419850093             0.00301309196           
       0.074368              0.0384236305             0.00287722548           
       0.075047              0.0391045083             0.00287140767           
       0.075727              0.0337977649             0.00265298458           
       0.076406              0.0424923075             0.00303407117           
       0.077085              0.0375851956             0.00280017928           
       0.077764              0.0358674602              0.0027258584           
       0.078443              0.0434898542             0.00302014328           
       0.079122              0.0418113513             0.00293284011           
       0.079802              0.0371798306             0.00279496781           
       0.080481              0.0408586059             0.00283114798           
       0.081160              0.0374293593             0.00276534001           
       0.081839                0.03326491             0.00256523041           
       0.082518              0.0381155994             0.00274821171           
       0.083197              0.0334371276             0.00253403324           
       0.083876              0.0354900686             0.00256728535           
       0.084556              0.0322251422             0.00251438314           
       0.085235              0.0373679894             0.00265528436           
       0.085914              0.0346250864             0.00258080437           
       0.086593              0.0353568292             0.00259114745           
       0.087272              0.0304817022             0.00237187836           
       0.087951              0.0328586717              0.0025182504           
       0.088631              0.0313432998             0.00237572511           
       0.089310              0.0347318768             0.00255389336           
       0.089989              0.0311359237             0.00238980423           
       0.090668              0.0304097368             0.00238784067           
       0.091347              0.0326421821             0.00248778801           
       0.092026              0.0334193365             0.00240606358           
       0.092706              0.0279195117             0.00227901086           
       0.093385              0.0299312115             0.00232345217           
       0.094064              0.0269812243             0.00223165879           
       0.094743              0.0290395931             0.00227993792           
       0.095422              0.0307710007             0.00232075079           
       0.096101              0.0282834651              0.0022707931           
       0.096781              0.0285126638             0.00224732985           
       0.097460              0.0253863992             0.00206270412           
       0.098139              0.0283078894             0.00216140182           
       0.098818              0.0263870414             0.00206108376           
       0.099497              0.0259431949             0.00204787187           
       0.100176               0.026469774             0.00201426089           
       0.100856              0.0308768198             0.00217409492           
       0.101535              0.0273318885             0.00204154348           
       0.102214              0.0290291329             0.00210398934           
       0.102893               0.024493277             0.00191061543           
       0.103572              0.0242195932             0.00187184385           
       0.104251              0.0192849676             0.00167647499           
       0.104931               0.026787067             0.00195784478           
       0.105610              0.0224339237             0.00179935525           
       0.106289              0.0252740343             0.00187807706           
       0.106968              0.0268323864             0.00194085349           
       0.107647                0.02531773             0.00188640989           
       0.108326               0.023865147             0.00180699351           
       0.109005              0.0244896614             0.00181896706           
       0.109685              0.0230173454             0.00174366103           
       0.110364              0.0249099692              0.0018345347           
       0.111043              0.0217367781             0.00170691363           
       0.111722              0.0253861444             0.00182209641           
       0.112401              0.0230333234               0.001740433           
       0.113080              0.0240435919             0.00175781493           
       0.113760               0.022962868             0.00174654797           
       0.114439              0.0220974909              0.0016888697           
       0.115118              0.0256115336             0.00180449365           
       0.115797              0.0215213252             0.00166946337           
       0.116476               0.022021954              0.0016634933           
       0.117155              0.0193103286             0.00157027842           
       0.117835              0.0185368006             0.00150792097           
       0.118514              0.0201455641             0.00159192615           
       0.119193              0.0221423019             0.00166896687           
       0.119872              0.0208238409             0.00159827338           
       0.120551              0.0234946263             0.00168636805           
       0.121230              0.0191008565             0.00150522678           
       0.121910              0.0220397929             0.00163251227           
       0.122589              0.0201369552             0.00156205705           
       0.123268              0.0195782936             0.00151039695           
       0.123947              0.0225280504             0.00163066664           
       0.124626               0.020943555             0.00155305131           
       0.125305              0.0229920188             0.00163521611           
       0.125985              0.0233419453             0.00163482807           
       0.126664              0.0203270575             0.00151106856           
       0.127343              0.0204398385             0.00153281848           
       0.128022              0.0205928096             0.00152674294           
       0.128701              0.0212826235             0.00154401837           
       0.129380               0.018664361              0.0014278177           
       0.130059              0.0190788593             0.00144693764           
       0.130739              0.0185929656             0.00143843862           
       0.131418              0.0187964956             0.00144224096           
       0.132097              0.0208670565             0.00150011382           
       0.132776              0.0187679421             0.00141623982           
       0.133455              0.0201765025             0.00147983222           
       0.134134              0.0194122613             0.00144691278           
       0.134814              0.0212898193             0.00149965796           
       0.135493               0.021893592             0.00152692871           
       0.136172              0.0194698852              0.0014290617           
       0.136851              0.0209057337             0.00148943134           
       0.137530              0.0184869602             0.00136734425           
       0.138209              0.0213862211             0.00148792584           
       0.138889               0.019514647             0.00142759422           
       0.139568              0.0220659342             0.00151739222           
       0.140247              0.0189200074             0.00140322668           
       0.140926              0.0183241649             0.00134146871           
       0.141605              0.0205527935             0.00145679897           
       0.142284              0.0184282818             0.00135659361           
       0.142964              0.0212985575             0.00146399757           
       0.143643              0.0165453788             0.00128870836           
       0.144322              0.0174691679             0.00129648717           
       0.145001              0.0197714714             0.00140758862           
       0.145680              0.0183696991             0.00132467408           
       0.146359              0.0205515384             0.00140626098           
       0.147039               0.020320327             0.00140984042           
       0.147718              0.0194310441             0.00135589638           
       0.148397              0.0177118164             0.00131463968           
       0.149076              0.0165191958             0.00123022259           
       0.149755              0.0158196546             0.00122248144           
       0.150434              0.0211306288             0.00141343945           
       0.151114              0.0184238172             0.00131250816           
       0.151793              0.0170724978             0.00126346949           
       0.152472              0.0187945561             0.00130224372           
       0.153151              0.0167706815             0.00124202439           
       0.153830              0.0191376534             0.00131711392           
       0.154509              0.0179089279             0.00126881409           
       0.155188              0.0210299508             0.00137442731           
       0.155868              0.0166623972             0.00121470232           
       0.156547              0.0185951464             0.00129146221           
       0.157226              0.0158839925             0.00116445474           
       0.157905              0.0178966036             0.00124640947           
       0.158584               0.017406111             0.00122697748           
       0.159263              0.0185077924             0.00126986649           
       0.159943              0.0184218083             0.00126785815           
       0.160622              0.0179708591             0.00122807747           
       0.161301              0.0176522006             0.00123342024           
       0.161980              0.0156662635             0.00114221428           
       0.162659              0.0183122312              0.0012485981           
       0.163338              0.0162798207             0.00116767661           
       0.164018              0.0209554605             0.00131783474           
       0.164697              0.0201351927             0.00130837198           
       0.165376              0.0181817258             0.00121612131           
       0.166055              0.0188701258              0.0012471007           
       0.166734              0.0178042054             0.00120593976           
       0.167413              0.0170720228             0.00118170962           
       0.168093              0.0173377167             0.00120213448           
       0.168772              0.0180509163             0.00119073852           
       0.169451              0.0170134516             0.00117728245           
       0.170130              0.0160190193             0.00112736137           
       0.170809              0.0167982254             0.00116823192           
       0.171488              0.0165078896             0.00114753494           
       0.172168              0.0163409028             0.00113074803           
       0.172847              0.0150045917              0.0010977606           
       0.173526              0.0183774065             0.00119171602           
       0.174205               0.015271746             0.00109136638           
       0.174884              0.0172832238             0.00115496674           
       0.175563              0.0177204571             0.00117447801           
       0.176243              0.0166663811             0.00115041031           
       0.176922              0.0167631761             0.00112367959           
       0.177601              0.0162218979             0.00111753707           
       0.178280              0.0163796433              0.0011104223           
       0.178959              0.0158841249             0.00110229236           
       0.179638              0.0148088164             0.00106126267           
       0.180317              0.0173145645             0.00113918196           
       0.180997              0.0173219421             0.00114560919           
       0.181676              0.0159924987             0.00108901568           
       0.182355              0.0178452769             0.00115727921           
       0.183034              0.0148665597             0.00103933397           
       0.183713              0.0160534972             0.00109318032           
       0.184392              0.0157604357             0.00108282854           
       0.185072              0.0161665326             0.00108419179           
       0.185751              0.0153148381             0.00105818205           
       0.186430              0.0157109102             0.00106427125           
       0.187109              0.0162517334             0.00109448901           
       0.187788              0.0170439937             0.00111808603           
       0.188467              0.0168616544             0.00109892862           
       0.189147              0.0150234835             0.00104780547           
       0.189826              0.0166014506             0.00108198116           
       0.190505              0.0177393348             0.00113685799           
       0.191184              0.0153873439             0.00104355337           
       0.191863              0.0173636994             0.00111088198           
       0.192542              0.0174942476             0.00112556541           
       0.193222              0.0151687764             0.00102460166           
       0.193901              0.0162903827             0.00107603862           
       0.194580              0.0158854848             0.00104399478           
       0.195259              0.0153903936             0.00103939907           
       0.195938              0.0148919259             0.00102486917           
       0.196617              0.0175889149             0.00109826631           
       0.197297              0.0158592066             0.00104712502           
       0.197976              0.0162399985             0.00104334538           
       0.198655              0.0163913099             0.00105964389           
       0.199334              0.0135374912            0.000954498606           
       0.200013               0.016015586             0.00103761622           
       0.200692              0.0173735354             0.00108721112           
       0.201371              0.0152340256             0.00100660312           
       0.202051              0.0153463766             0.00101344996           
       0.202730              0.0162617681             0.00103281795           
       0.203409               0.014170854            0.000970607198           
       0.204088              0.0150651865            0.000999659553           
       0.204767               0.014900954            0.000988970385           
       0.205446               0.016028243              0.0010277016           
       0.206126              0.0140237473            0.000948233467           
       0.206805              0.0160252236             0.00103222621           
       0.207484              0.0173823225             0.00105571854           
       0.208163              0.0142085792            0.000960221615           
       0.208842               0.017154507             0.00105222064           
       0.209521              0.0155506283            0.000993498735           
       0.210201               0.015977915             0.00101829344           
       0.210880              0.0154751646            0.000982479797           
       0.211559              0.0154663461            0.000996721709           
       0.212238              0.0142373979            0.000951436507           
       0.212917              0.0147633691            0.000965251856           
       0.213596               0.014539737            0.000963577275           
       0.214276              0.0138170738            0.000919756464           
       0.214955              0.0151936502            0.000984768337           
       0.215634              0.0154006741            0.000984349014           
       0.216313               0.014399821            0.000949827808           
       0.216992              0.0137621218            0.000928325448           
       0.217671              0.0144394424            0.000944454503           
       0.218351              0.0143615957            0.000951117138           
       0.219030              0.0163328011            0.000998281666           
       0.219709              0.0136885187            0.000919605571           
       0.220388              0.0139143303            0.000925968549           
       0.221067              0.0147398598            0.000953796963           
       0.221746              0.0132317509            0.000902761077           
       0.222426              0.0153795826            0.000958731441           
       0.223105              0.0133705007            0.000906098056           
       0.223784               0.016951244              0.0010101196           
       0.224463              0.0139160647            0.000922518543           
       0.225142              0.0153766947            0.000954381067           
       0.225821              0.0129825735            0.000880474041           
       0.226500              0.0163003252            0.000992857572           
       0.227180              0.0151567578            0.000942646893           
       0.227859              0.0139212032             0.00090746154           
       0.228538               0.015194037            0.000938519778           
       0.229217              0.0142200263            0.000915126577           
       0.229896              0.0152152146            0.000946151929           
       0.230575              0.0163079705            0.000963924626           
       0.231255              0.0146928885            0.000928647003           
       0.231934              0.0151277601            0.000935851882           
       0.232613               0.016647522            0.000985357768           
       0.233292              0.0146626484            0.000915817351           
       0.233971              0.0156095984            0.000944486596           
       0.234650              0.0134309956            0.000886405773           
       0.235330              0.0134616246            0.000879666704           
       0.236009              0.0129508482            0.000860956845           
       0.236688              0.0149755905             0.00092250186           
       0.237367               0.014661908               0.000914115           
       0.238046               0.014984213             0.00093061565           
       0.238725              0.0148669868            0.000912667151           
       0.239405              0.0155430541             0.00093897462           
       0.240084              0.0130616038             0.00085528266           
       0.240763              0.0143519388            0.000905118445           
       0.241442              0.0147646727            0.000905105304           
       0.242121              0.0144973253            0.000898566332           
       0.242800              0.0151327477            0.000922393603           
       0.243480              0.0138693692            0.000878916212           
       0.244159               0.015400525             0.00092660998           
       0.244838              0.0138564833            0.000864470368           
       0.245517              0.0142001832            0.000887714297           
       0.246196              0.0146072423            0.000900782037           
       0.246875              0.0122546601            0.000813560148           
       0.247554              0.0135001553            0.000862581157           
       0.248234              0.0164086708            0.000936551338           
       0.248913              0.0132726206            0.000851760778           
       0.249592              0.0146200712            0.000885456991           
       0.250271              0.0134331029             0.00084628764           
       0.250950              0.0152019978            0.000905799408           
       0.251629              0.0141072773            0.000865159706           
       0.252309              0.0143332201             0.00087383031           
       0.252988              0.0118043189             0.00077934471           
       0.253667               0.014266838            0.000866797813           
       0.254346              0.0137300958            0.000850161325           
       0.255025              0.0136117707            0.000844635801           
       0.255704              0.0134220984            0.000834888943           
       0.256384               0.014015137            0.000850182403           
       0.257063              0.0121928716            0.000797508857           
       0.257742               0.013921955             0.00084627791           
       0.258421              0.0116210937            0.000771702011           
       0.259100              0.0140631852            0.000850402761           
       0.259779              0.0129145517            0.000814243261           
       0.260459              0.0128019121            0.000812276616           
       0.261138              0.0142385336            0.000839900818           
       0.261817                0.01183604            0.000781228139           
       0.262496              0.0126148428            0.000798611177           
       0.263175              0.0128634304            0.000808173623           
       0.263854              0.0131592425            0.000813615693           
       0.264534              0.0126251545            0.000790127316           
       0.265213              0.0128347741            0.000809214111           
       0.265892              0.0118188154            0.000766577872           
       0.266571               0.011893817            0.000767257572           
       0.267250              0.0116855371             0.00076179108           
       0.267929               0.011575374            0.000757414322           
       0.268609              0.0121977371            0.000781766464           
       0.269288              0.0118234822            0.000756893732           
       0.269967              0.0119468085            0.000769028335           
       0.270646              0.0124767214            0.000782501521           
       0.271325              0.0113801552            0.000748572357           
       0.272004              0.0127396785             0.00078412988           
       0.272683              0.0119617119            0.000760749588           
       0.273363              0.0123220357            0.000777047146           
       0.274042              0.0141321947             0.00082725812           
       0.274721              0.0105388423            0.000713962046           
       0.275400              0.0117466631            0.000748774233           
       0.276079              0.0119958282            0.000760970463           
       0.276758               0.012162437            0.000775906365           
       0.277438              0.0107044185            0.000719743833           
       0.278117              0.0112959681             0.00075280807           
       0.278796              0.0113674881            0.000747522094           
       0.279475              0.0109301459            0.000745110109           
       0.280154              0.0116531864            0.000758293694           
       0.280833              0.0104899595            0.000723827494           
       0.281513              0.0117264609            0.000777306422           
       0.282192              0.0123840737            0.000785176696           
       0.282871              0.0118064716            0.000772004631           
       0.283550              0.0111259405            0.000753441191           
       0.284229              0.0121611599            0.000799283328           
       0.284908              0.0100124475             0.00073289238           
       0.285588              0.0107726655            0.000751304577           
       0.286267               0.011605319            0.000792285521           
       0.286946              0.0108123558            0.000759766031           
       0.287625              0.0115926566            0.000800098678           
       0.288304             0.00959347251            0.000718104895           
       0.288983              0.0124961098            0.000829951287           
       0.289663              0.0099835412            0.000746177146           
       0.290342              0.0098584545            0.000737540827           
       0.291021              0.0103728194            0.000760612625           
       0.291700             0.00949824399            0.000718333232           
       0.292379              0.0100021589            0.000754019669           
       0.293058             0.00947720896            0.000731193718           
       0.293738              0.0105881321            0.000766371859           
       0.294417              0.0109078287            0.000786896859           
       0.295096             0.00954921812            0.000728168343           
       0.295775             0.00986884242            0.000751559523           
       0.296454              0.0122800393            0.000827515543           
       0.297133              0.0100202168            0.000751042722           
       0.297812               0.010086473            0.000757300955           
       0.298492              0.0098203941            0.000748689231           
       0.299171             0.00972097576            0.000743480593           
       0.299850             0.00942763686             0.00072717734           
       0.300529             0.00942448864            0.000735245817           
       0.301208             0.00982286498            0.000752451077           
       0.301887              0.0111611292            0.000801118682           
       0.302567             0.00888175825            0.000711068927           
       0.303246             0.00918309628            0.000727751325           
       0.303925              0.0103835224            0.000783793271           
       0.304604             0.00917911517            0.000721023133           
       0.305283             0.00992891543            0.000761015492           
       0.305962              0.0106734472            0.000784265931           
       0.306642             0.00901441471            0.000730530613           
       0.307321             0.00947952534            0.000746747784           
       0.308000             0.00863118494            0.000704104802           
       0.308679             0.00884080171            0.000728035305           
       0.309358             0.00975094643             0.00075424972           
       0.310037              0.0102659672             0.00077563655           
       0.310717             0.00779565759            0.000675253222           
       0.311396              0.0085603844             0.00071234414           
       0.312075             0.00934333101            0.000753644996           
       0.312754             0.00826136297            0.000694489085           
       0.313433              0.0087086689             0.00071924396           
       0.314112             0.00833039188             0.00070328823           
       0.314792             0.00894058881            0.000733735924           
       0.315471             0.00871436643            0.000715435351           
       0.316150             0.00983394313            0.000767038564           
       0.316829             0.00864113476            0.000723764381           
       0.317508             0.00844647326            0.000707536199           
       0.318187             0.00957945899            0.000763436718           
       0.318866             0.00932605281            0.000743124031           
       0.319546             0.00723839968            0.000664500469           
       0.320225             0.00821168313              0.0007077805           
       0.320904             0.00831168741            0.000701067047           
       0.321583             0.00844158353            0.000722092033           
       0.322262             0.00912563274             0.00073940018           
       0.322941             0.00820864838            0.000710252177           
       0.323621             0.00963403306            0.000764754951           
       0.324300             0.00837199632             0.00071346554           
       0.324979               0.006997768            0.000653465557           
       0.325658             0.00801069044            0.000700430542           
       0.326337             0.00680160565            0.000646252633           
       0.327016             0.00822204274            0.000706025685           
       0.327696             0.00678384088             0.00064844317           
       0.328375             0.00723097056            0.000663822706           
       0.329054             0.00693726751            0.000653728097           
       0.329733              0.0078598776            0.000698383485           
       0.330412              0.0078384928            0.000691718322           
       0.331091             0.00619946421            0.000626321536           
       0.331771             0.00853193775            0.000715504573           
       0.332450             0.00690541432            0.000656197474           
       0.333129             0.00773708745            0.000692797546           
       0.333808             0.00682017014            0.000651311613           
       0.334487             0.00639779427             0.00063381223           
       0.335166             0.00796920853            0.000697027767           
       0.335846             0.00679876577            0.000655123506           
       0.336525             0.00697359339             0.00065694246           
       0.337204             0.00478355271            0.000545520878           
       0.337883             0.00641437459            0.000632540808           
       0.338562             0.00767710017            0.000695846382           
       0.339241             0.00607209024            0.000620007461           
       0.339921             0.00737598054            0.000671881762           
       0.340600             0.00736235056            0.000684008251           
       0.341279             0.00683074768            0.000651795826           
       0.341958             0.00664316675            0.000651852532           
       0.342637             0.00749880625            0.000682776788           
       0.343316             0.00586347779            0.000605502433           
       0.343995             0.00690861274            0.000668016651           
       0.344675              0.0067109779            0.000646292583           
       0.345354             0.00673523506            0.000651730351           
       0.346033             0.00614113157            0.000620700624           
       0.346712             0.00640846511            0.000638112628           
       0.347391             0.00611541221            0.000627211431           
       0.348070             0.00543353325            0.000582814607           
       0.348750             0.00573171786            0.000607242406           
       0.349429             0.00662790456            0.000644561925           
       0.350108             0.00602657364            0.000622023266           
       0.350787             0.00707274543            0.000662405379           
       0.351466             0.00533634762            0.000585975319           
       0.352145             0.00529352568            0.000584103784           
       0.352825             0.00618832093            0.000628683847           
       0.353504             0.00535644142            0.000584759853           
       0.354183             0.00635186469             0.00062944442           
       0.354862              0.0060787425            0.000630071768           
       0.355541             0.00595718753            0.000615571469           
       0.356220             0.00592513663            0.000615072906           
       0.356900             0.00571757133             0.00060994244           
       0.357579             0.00596481014            0.000615351376           
       0.358258             0.00515829602            0.000580158659           
       0.358937             0.00670614617            0.000649064013           
       0.359616             0.00477563429            0.000555378697           
       0.360295             0.00582598609            0.000613931695           
       0.360975             0.00557055064            0.000597754756           
       0.361654             0.00473303686            0.000553830886           
       0.362333             0.00545255225            0.000591416215           
       0.363012             0.00485938653            0.000565504622           
       0.363691             0.00537443879             0.00058298598           
       0.364370             0.00569333263             0.00060747631           
       0.365050             0.00625393359             0.00063327528           
       0.365729             0.00484465861            0.000562689592           
       0.366408              0.0053925701            0.000594970926           
       0.367087              0.0059049699            0.000612610833           
       0.367766              0.0062285421            0.000642280821           
       0.368445             0.00518379445            0.000575540188           
       0.369124             0.00537519392            0.000590673104           
       0.369804             0.00549503718            0.000596265898           
       0.370483             0.00522501594             0.00058397537           
       0.371162             0.00541282424            0.000597823963           
       0.371841             0.00565603796            0.000600452375           
       0.372520              0.0053137159            0.000593664041           
       0.373199             0.00485558795            0.000560715513           
       0.373879             0.00477011316            0.000562192844           
       0.374558             0.00450350202            0.000538284763           
       0.375237             0.00514983975            0.000576560795           
       0.375916             0.00477745949             0.00056596295           
       0.376595             0.00496528987             0.00056570455           
       0.377274             0.00466115455            0.000556878951           
       0.377954             0.00468516914             0.00054954112           
       0.378633             0.00450789568            0.000545856377           
       0.379312             0.00482910578            0.000564826634           
       0.379991             0.00477721828            0.000558876295           
       0.380670             0.00435060739            0.000542765315           
       0.381349             0.00472572737            0.000557558609           
       0.382029             0.00353624784              0.0004892221           
       0.382708             0.00491355702            0.000564084011           
       0.383387             0.00420331043            0.000533548328           
       0.384066             0.00466319468            0.000556822247           
       0.384745             0.00409303248             0.00052372258           
       0.385424             0.00405154487            0.000522831298           
       0.386104             0.00469950187            0.000556866456           
       0.386783             0.00456650502            0.000560803481           
       0.387462             0.00452600499            0.000544422029           
       0.388141             0.00372981012             0.00050211494           
       0.388820             0.00474146808            0.000562037658           
       0.389499             0.00378546783            0.000505017923           
       0.390178             0.00436000361            0.000544147272           
       0.390858             0.00547463724            0.000604814556           
       0.391537             0.00553763889            0.000614496053           
       0.392216             0.00326715305            0.000466083353           
       0.392895             0.00489458159            0.000572396893           
       0.393574             0.00486834299            0.000569445568           
       0.394253             0.00350782853            0.000485545801           
       0.394933             0.00394161945            0.000520574649           
       0.395612             0.00511608372            0.000575854152           
       0.396291             0.00460624282            0.000557532208           
       0.396970             0.00504060323            0.000578059899           
       0.397649             0.00401487117            0.000517490604           
       0.398328             0.00364510228            0.000490917325           
       0.399008             0.00335968785            0.000470281715           
       0.399687             0.00465743168             0.00055586273           
       0.400366             0.00473891312            0.000558559458           
       0.401045             0.00380986441            0.000499876702           
       0.401724             0.00414853295            0.000522492096           
       0.402403             0.00408816197            0.000522719016           
       0.403083             0.00331721279            0.000464069432           
       0.403762             0.00413470175            0.000520660587           
       0.404441             0.00458796519            0.000551950244           
       0.405120             0.00303940534            0.000447772772           
       0.405799             0.00372577558            0.000493606532           
       0.406478              0.0045162819            0.000543468004           
       0.407158             0.00389680983            0.000503874326           
       0.407837             0.00331487175            0.000468832185           
       0.408516              0.0034271912            0.000472561763           
       0.409195               0.003262128            0.000466271413           
       0.409874             0.00417714882            0.000534969538           
       0.410553             0.00456096288            0.000565019287           
       0.411233             0.00374508001            0.000509341868           
       0.411912             0.00364166801            0.000509377071           
       0.412591             0.00451152037            0.000570710013           
       0.413270             0.00354178011            0.000503264931           
       0.413949             0.00398336204            0.000539545939           
       0.414628             0.00265653115            0.000439825638           
       0.415307             0.00266071181            0.000445067844           
       0.415987             0.00348119904            0.000504891515           
       0.416666             0.00292979548            0.000460395896           
       0.417345             0.00296154382            0.000470613496           
       0.418024             0.00267719246            0.000447461996           
       0.418703             0.00301043386            0.000473622496           
       0.419382             0.00357146618            0.000513342958           
       0.420062             0.00270871704            0.000448312918           
       0.420741             0.00259785512            0.000441377685           
       0.421420             0.00261338752            0.000444374124           
       0.422099             0.00315225072            0.000488054723           
       0.422778              0.0028797968            0.000469012654           
       0.423457             0.00260820192            0.000449080656           
       0.424137             0.00326630172            0.000494363085           
       0.424816             0.00232345446             0.00042566492           
       0.425495             0.00301235045            0.000484219731           
       0.426174             0.00326343871            0.000504172909           
       0.426853             0.00221590933            0.000412925505           
       0.427532             0.00311752466            0.000493920512           
       0.428212              0.0016594718            0.000362739205           
       0.428891             0.00245370046            0.000440079769           
       0.429570             0.00283405946            0.000473284143           
       0.430249             0.00272013484            0.000461266571           
       0.430928             0.00301228724             0.00049602034           
       0.431607             0.00251692784            0.000445614807           
       0.432287             0.00254947702             0.00045177163           
       0.432966             0.00219256009            0.000422641869           
       0.433645             0.00325112464            0.000515189337           
       0.434324              0.0022617714            0.000427118708           
       0.435003             0.00225747488            0.000427441641           
       0.435682             0.00263093113            0.000465229765           
       0.436361             0.00213158625            0.000418198604           
       0.437041             0.00278244061            0.000477160084           
       0.437720              0.0020639236            0.000412940711           
       0.438399              0.0021674978            0.000425383469           
       0.439078             0.00144381321            0.000357249268           
       0.439757             0.00237161208            0.000455044576           
       0.440436             0.00204839146            0.000432431625           
       0.441116              0.0023912094            0.000474858166           
       0.441795             0.00392611989            0.000609199875           
       0.442474             0.00260645015            0.000497750901           
       0.443153             0.00295945144            0.000542760827           
       0.443832             0.00186300649             0.00043136161           
       0.444511             0.00155927195            0.000392856521           
       0.445191             0.00185576691            0.000439007315           
       0.445870             0.00248236302              0.0005077554           
       0.446549             0.00168764415            0.000423075658           
       0.447228             0.00249978036            0.000511997145           
       0.447907             0.00182108581            0.000442244101           
       0.448586             0.00147634006            0.000407770591           
       0.449266             0.00167499028            0.000430343867           
       0.449945             0.00284768352            0.000558830753           
       0.450624             0.00231776536            0.000512167176           
       0.451303             0.00269581768            0.000559520165           
       0.451982             0.00218458815             0.00050056695           
       0.452661             0.00349187583             0.00064464895           
       0.453341             0.00290898575            0.000590451156           
       0.454020             0.00316405535            0.000616732071           
       0.454699             0.00139027663            0.000412547177           
       0.455378             0.00236552618            0.000538418395           
       0.456057             0.00195367248            0.000498009617           
       0.456736             0.00218568734            0.000525109019           
       0.457416              0.0023168101            0.000540646018           
       0.458095             0.00240269426            0.000558543656           
       0.458774             0.00247460659            0.000574331819           
       0.459453             0.00129325943             0.00041728952           
       0.460132              0.0013526851            0.000417552601           
       0.460811             0.00161044562            0.000472600596           
       0.461490             0.00210221951            0.000534466727           
       0.462170             0.00205961931            0.000537279314           
       0.462849             0.00206979696             0.00054209851           
       0.463528             0.00165565837             0.00048371709           
       0.464207             0.00245149433            0.000599615096           
       0.464886             0.00298553415            0.000656558156           
       0.465565            0.000851956929            0.000354581249           
       0.466245             0.00159949909            0.000487353983           
       0.466924              0.0015338245            0.000488517253           
       0.467603             0.00175087694            0.000510868393           
       0.468282             0.00263127021            0.000641124265           
       0.468961             0.00109885443            0.000417035712           
       0.469640             0.00270194335            0.000656553893           
       0.470320             0.00191240269             0.00055274141           
       0.470999             0.00195312943            0.000563864668           
       0.471678             0.00213888188            0.000595740742           
       0.472357              0.0013398744            0.000472831807           
       0.473036             0.00102323167            0.000415809417           
       0.473715             0.00104238969            0.000422967102           
       0.474395              0.0019493015            0.000586399042           
       0.475074             0.00178772047            0.000561585907           
       0.475753            0.000367054091            0.000252271246           
       0.476432            0.000428148076            0.000282377194           
       0.477111            0.000760828375            0.000371870817           
       0.477790             0.00113427915            0.000456481279           
       0.478470            0.000803901759             0.00038937682           
       0.479149             0.00120321671            0.000481292927           
       0.479828            0.000812650142            0.000394607913           
       0.480507            0.000839559629            0.000404321754           
       0.481186            0.000278408538            0.000238080546           
       0.481865            0.000459089265              0.0003019393           
       0.482545             8.3409303e-05             0.00013021168           
       0.483224             0.00028476435            0.000242238382           
       0.483903            0.000947911457            0.000448922733           
       0.484582            0.000319443631            0.000264844194           
       0.485261            0.000304110889            0.000251863009           
       0.485940             0.00123510939            0.000528051952           
       0.486619            0.000327560683            0.000268946557           
       0.487299           -0.000102898504                         0           
       0.487978            0.000119521357             0.00016336696           
       0.488657            0.000883646874            0.000462532496           
       0.489336            0.000385719775            0.000300231925           
       0.490015             0.00130246886            0.000556037736           
       0.490694            0.000145658463             0.00019108957           
       0.491374            -8.9487163e-05                         0           
       0.492053           -6.63298426e-05                         0           
       0.492732            -0.00032282755                         0           
       0.493411           -0.000322847324                         0           
       0.494090           -0.000322867229                         0           
       0.494769           -5.00731816e-05                         0           
       0.495449           -0.000322906543                         0           
       0.496128           -0.000322926399                         0           
       0.496807           -0.000322946036                         0           
       0.497486           -5.11031632e-05                         0           
       0.498165           -0.000322985959                         0           
       0.498844            -4.0469642e-05                         0           
       0.499524           -0.000323025654                         0           
       0.500203           -0.000323045864                         0           
       0.500882           -0.000323065676                         0           
       0.501561            0.000875563275            0.000515831418           
       0.502240            -0.00032310569                         0           
       0.502919            -5.9984266e-06                         0           
       0.503599           -0.000323145872                         0           
       0.504278              1.106949e-06            1.88225179e-05           
       0.504957           -0.000323186459                         0           
       0.505636           -0.000323206504                         0           
       0.506315           -0.000323226878                         0           
       0.506994           -0.000323246888                         0           
       0.507673           -0.000323266858                         0           
       0.508353           -0.000323287249                         0           
       0.509032           -0.000323307552                         0           
       0.509711           -0.000323327864                         0           
       0.510390           -0.000323348494                         0           
       0.511069           -0.000323369057                         0           
       0.511748           -0.000323389537                         0           
       0.512428           -0.000323410163                         0           
       0.513107           -0.000323430471                         0           
       0.513786            8.55075266e-05            0.000186399599           
       0.514465            0.000436290649             0.00040760475           
       0.515144           -0.000323492269                         0           
       0.515823            7.88454421e-05            0.000178410407           
       0.516503            9.70388811e-05            0.000203075193           
       0.517182           -0.000323554202                         0           
       0.517861           -0.000323574859                         0           
       0.518540           -0.000323595633                         0           
       0.519219           -0.000323616286                         0           
       0.519898           -0.000323637148                         0           
       0.520578           -0.000323658136                         0           
       0.521257             0.00017508982            0.000295482159           
       0.521936           -0.000323699618                         0           
       0.522615            0.000164510433            0.000282962595           
       0.523294            0.000155290126            0.000274927623           
       0.523973           -0.000323762527                         0           
       0.524653           -0.000323783179                         0           
       0.525332           -0.000323804131                         0           
       0.526011             0.00019954987            0.000322911876           
       0.526690            0.000170871136            0.000290782235           
       0.527369            -0.00032386786                         0           
       0.528048           -0.000323889123                         0           
       0.528728            -0.00032391036                         0           
       0.529407            0.000772729148            0.000651164763           
       0.530086            -0.00032395253                         0           
       0.530765            -0.00032397359                         0           
       0.531444            0.000202424151            0.000326017592           
       0.532123           -0.000324016541                         0           
       0.532802           -0.000324038029                         0           
       0.533482           -0.000324059442                         0           
       0.534161           -0.000324080891                         0           
       0.534840           -0.000324102155                         0           
       0.535519            0.000841770737            0.000705865965           
       0.536198              0.0002758255            0.000406055883           
       0.536877             0.00032510726            0.000459328413           
       0.537557           -0.000324187888                         0           
       0.538236           -0.000324209584                         0           
       0.538915           -0.000324231272                         0           
       0.539594            0.000332722091            0.000468511928           
       0.540273           -0.000324274929                         0           
       0.540952           -0.000324296681                         0           
       0.541632           -0.000324318036                         0           
       0.542311           -0.000324339587                         0           
       0.542990            0.000401402926            0.000540248277           
       0.543669           -0.000324383353                         0           
       0.544348           -0.000324405301                         0           
       0.545027           -0.000324427202                         0           
       0.545707           -0.000324449169                         0           
       0.546386           -0.000324471197                         0           
       0.547065           -0.000324492961                         0           
       0.547744           -0.000324514824                         0           
       0.548423           -0.000324536928                         0           
       0.549102           -0.000324559055                         0           
       0.549782            -0.00032458107                         0           
       0.550461           -0.000324603346                         0           
       0.551140           -0.000324625757                         0           
       0.551819           -0.000324647902                         0           
       0.552498             0.00134469755             0.00105804444           
       0.553177           -0.000324692189                         0           
       0.553856           -0.000324714219                         0           
       0.554536           -0.000324736322                         0           
       0.555215           -0.000324758762                         0           
       0.555894             0.00301868812             0.00160770791           
       0.556573             0.00064772467            0.000793775089           
       0.557252            -0.00032482617                         0           
       0.557931            0.000634046145            0.000785403253           
       0.558611            0.000639185365            0.000785472039           
       0.559290           -0.000324893831                         0           
       0.559969           -0.000324915622                         0           
       0.560648            -0.00032493799                         0           
       0.561327           -0.000324960856                         0           
       0.562006           -0.000324983617                         0           
       0.562686            -0.00032500639                         0           
       0.563365           -0.000325029247                         0           
       0.564044           -0.000325051989                         0           
       0.564723           -0.000325074681                         0           
       0.565402           -0.000325096949                         0           
       0.566081           -0.000325119366                         0           
       0.566761            0.000820246677            0.000970515889           
       0.567440           -0.000325165143                         0           
       0.568119           -0.000325188079                         0           
       0.568798             0.00113346105             0.00128941846           
       0.569477           -0.000325234446                         0           
       0.570156           -0.000325257668                         0           
       0.570836           -0.000325280801                         0           
       0.571515           -0.000325303446                         0           
       0.572194           -0.000325326747                         0           
       0.572873           -0.000325349515                         0           
       0.573552           -0.000325372149                         0           
       0.574231           -0.000325395242                         0           
       0.574911           -0.000325418918                         0           
       0.575590           -0.000325442137                         0           
       0.576269             0.00146203958             0.00165547266           
       0.576948           -0.000325488879                         0           
       0.577627           -0.000325511753                         0           
       0.578306           -0.000325534949                         0           
       0.578985           -0.000325558344                         0           
       0.579665           -0.000325581604                         0           
       0.580344           -0.000325605216                         0           
       0.581023           -0.000325628802                         0           
       0.581702           -0.000325652171                         0           
       0.582381           -0.000325675327                         0           
       0.583060           -0.000325699174                         0           
       0.583740           -0.000325722646                         0           
       0.584419           -0.000325746196                         0           
       0.585098           -0.000325769718                         0           
       0.585777           -0.000325793423                         0           
       0.586456           -0.000325817514                         0           
       0.587135           -0.000325840965                         0           
       0.587815           -0.000325864162                         0           
       0.588494           -0.000325888083                         0           
       0.589173           -0.000325912552                         0           
       0.589852           -0.000325935721                         0           
       0.590531           -0.000325959764                         0           
       0.591210           -0.000325983252                         0           
       0.591890           -0.000326007193                         0           
       0.592569           -0.000326030334                         0           
       0.593248           -0.000326055634                         0           
       0.593927           -0.000326079688                         0           
       0.594606           -0.000326104236                         0           
       0.595285           -0.000326127322                         0           
       0.595965           -0.000326148865                         0           
       0.596644           -0.000326171034                         0           
