################################################################################
# EDF_DataBlockID                     0.Image.Psd
# EDF_BinarySize                      2105344
# EDF_HeaderSize                      2560
# ByteOrder                           LowByteFirst
# DataType                            FloatValue
# Dim_1                               512
# Dim_2                               1028
# Image                               0
# HeaderID                            EH:000000:000000:000000
# Size                                2105344
# Center_1                            304.9000
# Center_2                            588.7000
# Comment                             Xenocs_Cell_Window - 20251028_20perc_iodine_1.23mg
# DDummy                              0.6
# Date                                2025-10-29T19:24:35
# Delta                               21.910000
# Dummy                               -1.5
# ExposureTime                        360
# Gamma                               15.360000
# Intensity1                          8.48916e-10
# PSize_1                             7.5e-05
# PSize_2                             7.5e-05
# Pressure                            0.0326061
# SampleDistance                      0.115750
# SampleEnvKind                       large
# SampleEnvPN                         ElectroChemical cell
# SampleEnvSN                         1141
# Thickness                           0
# Wavelength                          1.541891e-10
# Wavelength                          1.54189e-10
# aux                                 0
# aux_dial                            0.002375
# beamx                               588.434
# beamx_dial                          588.434
# beamz                               657.808
# beamz_dial                          657.808
# det0x                               0
# det0x_dial                          6.36945
# det0xvd                             0
# det0xvd_dial                        0
# det0y                               450.002
# det0y_dial                          481.635
# det0z                               0
# det0z_dial                          1.23302
# det0zvd                             0
# det0zvd_dial                        0
# mag                                 1.818
# mag_dial                            1.818
# om                                  0.2499
# om_dial                             -0.610199
# phi                                 -0.0120535
# phi_dial                            0
# ry                                  0.599993
# ry_dial                             0.599993
# s1bot                               0.8
# s1bot_dial                          -1.66094
# s1hl                                0.8
# s1hl_dial                           -0.608437
# s1hr                                0.8
# s1hr_dial                           0.970938
# s1top                               0.8
# s1top_dial                          -0.461562
# s2bot                               0.45
# s2bot_dial                          1.36109
# s2hl                                0.45
# s2hl_dial                           -0.83375
# s2hr                                0.45
# s2hr_dial                           -0.118594
# s2top                               0.45
# s2top_dial                          1.44734
# w2theta                             32
# w2theta_dial                        32
# waxsch                              19.2605
# waxsch_dial                         -32.7355
# waxsh                               137.085
# waxsh_dial                          -43.5338
# waxsth                              26.0607
# waxsth_dial                         -19.4086
# waxsz                               67.0407
# waxsz_dial                          -23.7954
# wind                                65.9854
# wind_dial                           66.0041
# wpsi                                124
# wpsi_dial                           124
# wstod                               115
# wstod_dial                          115
# x                                   0
# x_dial                              1.00969
# z                                   0
# z_dial                              13.3172
# CountCutoff                         6807993
# DetectorModel                       Dectris EIGER2 Si 500K, S/N E-01-0554
# ThresholdSetting                    4023.88989258
# Saturation                          0
# FlatField                           Corrected
# BackgroundReductionExtra            0.02
# BackgroundCorrectionConstant        0.0026712
# Detector                            0
# Monitor                             0
# Pil_Roi0                            0
# SumForIntensity1                    3.0561e+08
# TransmittedFlux                     848916
# det                                 0
# mon                                 0
# pilai0                              3.0561e+08
# pilai1                              772402
# pilct0                              5.28863e+08
# pilct1                              772402
# pilroi0                             0
# pilroi1                             0
# sec                                 1
# title                               20251028_20perc_iodine_1.23mg_1_00264.edf
# usaxs0                              0
# Operation                           Azimuthal average I(q)
# Error_model                         ErrorModel.poisson
# Geometrical_correction              True
# Transmission_correction             True
# Thickness_correction                False
# Binning mode                        Uniform
# Binning factor                      1.0
# Psi                                 0.0
# Omega                               0.2499
# MaskInvalidPixels                   True
# DetectorEdge                        3
# MaskFiles                           ['WAXS_corrected.edf']
################################################################################
    q(A⁻¹)                Intensity(a.u.)            Sigma_I(a.u.)            
       0.693100           -2.39166216e-05                         0           
       0.695741             0.00566448588             0.00410931731           
       0.698381           -2.38968681e-05                         0           
       0.701021             0.00887939368             0.00890935216           
       0.703662             0.00861271351             0.00506481904           
       0.706302              0.0122541074             0.00467726448           
       0.708942              0.0115496015               0.005860783           
       0.711583             0.00442211331             0.00314031251           
       0.714223           -2.38200893e-05                         0           
       0.716864             0.00625153482             0.00282047313           
       0.719504             0.00890418944              0.0036324002           
       0.722144              0.0076353753             0.00311500327           
       0.724785              0.0095740874             0.00278242464           
       0.727425              0.0103753567             0.00391846779           
       0.730065             0.00660024631             0.00221073177           
       0.732706              0.0108728702             0.00238274094           
       0.735346             0.00354955808             0.00177466335           
       0.737987             0.00973289895              0.0020765721           
       0.740627             0.00774598576             0.00276408083           
       0.743267             0.00884967472             0.00197887429           
       0.745908               0.010467409             0.00233497842           
       0.748548             0.00483576076             0.00146288475           
       0.751189             0.00565038159             0.00213075309           
       0.753829             0.00677108529             0.00214411703           
       0.756469             0.00789617047             0.00186707149           
       0.759110             0.00636023389             0.00176587423           
       0.761750             0.00917076237              0.0018749367           
       0.764390             0.00542237805             0.00150898267           
       0.767031             0.00944288192             0.00172441104           
       0.769671             0.00637654626             0.00176764852           
       0.772312             0.00675956941             0.00138552391           
       0.774952             0.00776963705             0.00200592453           
       0.777592              0.0101372092             0.00166890116           
       0.780233             0.00715070566             0.00169110135           
       0.782873             0.00838253323              0.0017511585           
       0.785513             0.00752541061             0.00177380833           
       0.788154             0.00468590304             0.00117090621           
       0.790794              0.0029227666             0.00110555808           
       0.793435             0.00703309929             0.00154066454           
       0.796075              0.0100191176             0.00177139581           
       0.798715              0.0109200675             0.00218537657           
       0.801356             0.00572706359             0.00136212053           
       0.803996             0.00940484982             0.00177958274           
       0.806637             0.00719890035             0.00123904635           
       0.809277              0.0072643693             0.00134720834           
       0.811917             0.00611263229             0.00115528089           
       0.814558             0.00891293804             0.00144988566           
       0.817198             0.00766473755             0.00127737083           
       0.819838             0.00629318276             0.00117142836           
       0.822479             0.00572390167             0.00131188493           
       0.825119             0.00477265409             0.00101958483           
       0.827760             0.00603362246             0.00116124882           
       0.830400             0.00726300858             0.00119913949           
       0.833040             0.00541807344             0.00108509442           
       0.835681             0.00391963214             0.00104921099           
       0.838321             0.00633597947              0.0011196461           
       0.840961             0.00632869682             0.00121920582           
       0.843602             0.00566925468             0.00105820924           
       0.846242             0.00705928231             0.00118065785           
       0.848883             0.00555998799             0.00107227822           
       0.851523             0.00561556298              0.0010642378           
       0.854163             0.00817954296             0.00136592143           
       0.856804             0.00569475373             0.00102476577           
       0.859444             0.00832363549             0.00121390334           
       0.862085             0.00748756909             0.00119996903           
       0.864725             0.00887090603             0.00133668063           
       0.867365             0.00519386671            0.000948429303           
       0.870006             0.00896322711             0.00118727042           
       0.872646             0.00795923358             0.00117321829           
       0.875286              0.0055827298            0.000945299683           
       0.877927             0.00920736246             0.00117144029           
       0.880567             0.00914186845             0.00120931181           
       0.883208             0.00673352371             0.00102809008           
       0.885848              0.0075795982             0.00113254717           
       0.888488              0.0087790424             0.00114322323           
       0.891129             0.00815617621             0.00113144371           
       0.893769             0.00746246927             0.00103574935           
       0.896410             0.00933845317             0.00108026431           
       0.899050             0.00725545028             0.00104715284           
       0.901690             0.00678491848             0.00110304683           
       0.904331             0.00959352684             0.00116283071           
       0.906971              0.0081155487             0.00113778625           
       0.909611             0.00778752743             0.00101460184           
       0.912252             0.00717993189             0.00100626456           
       0.914892             0.00687531523             0.00107605329           
       0.917533             0.00734778538             0.00105233777           
       0.920173             0.00530021478            0.000829238811           
       0.922813             0.00829163263             0.00108840051           
       0.925454              0.0070527581            0.000903896349           
       0.928094             0.00790274302             0.00102148091           
       0.930734             0.00610807757            0.000966834733           
       0.933375             0.00598767659            0.000947847846           
       0.936015             0.00741494962            0.000957969526           
       0.938656             0.00541567162            0.000878269553           
       0.941296             0.00655223667            0.000875500961           
       0.943936             0.00854704597            0.000980586945           
       0.946577             0.00774306238            0.000927157983           
       0.949217              0.0067539439            0.000796288888           
       0.951858             0.00614759517            0.000795258739           
       0.954498             0.00800453214             0.00105035999           
       0.957138             0.00704700299            0.000933660319           
       0.959779             0.00733766122             0.00093918658           
       0.962419             0.00721764536            0.000925278319           
       0.965059             0.00867841592              0.0010670937           
       0.967700             0.00741059089             0.00100993368           
       0.970340             0.00676536845            0.000853899708           
       0.972981             0.00793944955             0.00084279209           
       0.975621             0.00780290497            0.000888842275           
       0.978261             0.00738412679            0.000821580468           
       0.980902             0.00587964451            0.000877143531           
       0.983542             0.00974662936             0.00100009875           
       0.986182             0.00703289689            0.000834071138           
       0.988823             0.00717936889             0.00081827467           
       0.991463             0.00838099026            0.000943247345           
       0.994104             0.00726777263            0.000856865621           
       0.996744             0.00758201314            0.000892690855           
       0.999384             0.00876218507            0.000858252396           
       1.002025             0.00701949812            0.000857388095           
       1.004665             0.00709226593            0.000787597493           
       1.007306             0.00735243063            0.000797808426           
       1.009946             0.00557477754            0.000708496193           
       1.012586             0.00819169521            0.000836456459           
       1.015227             0.00658214397            0.000805510106           
       1.017867             0.00692980273            0.000794332587           
       1.020507             0.00771350294            0.000811761273           
       1.023148             0.00863147525            0.000926568365           
       1.025788             0.00994008941             0.00091172127           
       1.028429             0.00697597821            0.000800187406           
       1.031069             0.00812871135            0.000812844309           
       1.033709             0.00843212573            0.000880033746           
       1.036350             0.00859428016            0.000797954246           
       1.038990             0.00734820029            0.000751401484           
       1.041630             0.00760772474            0.000797438993           
       1.044271             0.00797409528            0.000767808313           
       1.046911             0.00746123176            0.000781230603           
       1.049552             0.00922170168            0.000912489812           
       1.052192             0.00843283212             0.00079678342           
       1.054832             0.00989779242            0.000871075068           
       1.057473             0.00799691066            0.000771847402           
       1.060113             0.00828512554            0.000766206078           
       1.062754             0.00708417147            0.000723367213           
       1.065394             0.00883527165            0.000854093521           
       1.068034             0.00731603108            0.000707146167           
       1.070675             0.00879054908            0.000808564901           
       1.073315               0.007342202            0.000749550495           
       1.075955             0.00872762722            0.000771496782           
       1.078596             0.00777098538            0.000773706552           
       1.081236             0.00876554209            0.000786857341           
       1.083877             0.00893514439            0.000787306658           
       1.086517             0.00885270579            0.000840319574           
       1.089157             0.00859175403            0.000858978673           
       1.091798             0.00730122652            0.000694222277           
       1.094438             0.00937184455            0.000783987597           
       1.097078             0.00898438512            0.000736218892           
       1.099719             0.00775398342            0.000739797957           
       1.102359             0.00873822437            0.000735488045           
       1.105000             0.00889132101            0.000829592212           
       1.107640              0.0080514428            0.000754831707           
       1.110280             0.00929131472            0.000739858106           
       1.112921             0.00897541102            0.000781139737           
       1.115561             0.00886695226            0.000737908661           
       1.118202              0.0086809964            0.000730818008           
       1.120842             0.00781343838            0.000728703641           
       1.123482              0.0086080773            0.000761521089           
       1.126123              0.0096428549            0.000773083044           
       1.128763             0.00803232163            0.000710413779           
       1.131403             0.00862160351            0.000709210534           
       1.134044             0.00927374579            0.000756876726           
       1.136684             0.00835489434            0.000765941991           
       1.139325             0.00798303629            0.000689704165           
       1.141965             0.00977910582            0.000768404663           
       1.144605             0.00733360566            0.000634484826           
       1.147246             0.00733343294             0.00064933269           
       1.149886             0.00868732681            0.000704226267           
       1.152527             0.00915938295            0.000733621887           
       1.155167              0.0098331416            0.000722995151           
       1.157807             0.00996311168            0.000780285787           
       1.160448              0.0100265035            0.000764389276           
       1.163088              0.0090534644             0.00069283307           
       1.165728             0.00904818771            0.000711137481           
       1.168369             0.00904326406            0.000717512086           
       1.171009             0.00850879147            0.000675435614           
       1.173650              0.0102735814            0.000761656626           
       1.176290               0.010728483            0.000760609455           
       1.178930             0.00941776773            0.000698446216           
       1.181571             0.00968370854            0.000722283631           
       1.184211             0.00905307129            0.000700845016           
       1.186851             0.00917846372            0.000689935084           
       1.189492             0.00956985345             0.00069975221           
       1.192132              0.0102375302            0.000715630592           
       1.194773               0.010151118            0.000715717525           
       1.197413             0.00908087631            0.000648601995           
       1.200053              0.0113277272            0.000742818467           
       1.202694             0.00841617274            0.000608867799           
       1.205334              0.0103774891            0.000728625686           
       1.207975             0.00959132804            0.000668630945           
       1.210615             0.00911137596            0.000718921531           
       1.213255              0.0101302722            0.000678819784           
       1.215896             0.00896354451            0.000650103286           
       1.218536             0.00850102743            0.000608760968           
       1.221176             0.00913614099            0.000686126187           
       1.223817              0.0106462338            0.000695272842           
       1.226457             0.00986359882            0.000682711814           
       1.229098               0.010434648            0.000702162223           
       1.231738             0.00958969577             0.00067644606           
       1.234378             0.00894663678            0.000613941393           
       1.237019              0.0100555582            0.000670724409           
       1.239659               0.010202079            0.000669708241           
       1.242299             0.00960693451            0.000641623994           
       1.244940              0.0105719528            0.000654611146           
       1.247580              0.0105044969            0.000672474582           
       1.250221              0.0105286586            0.000669093345           
       1.252861               0.011047979             0.00065250035           
       1.255501              0.0101849798            0.000680256653           
       1.258142              0.0101753205            0.000638919987           
       1.260782              0.0110182018            0.000679241961           
       1.263423              0.0108589888            0.000647941966           
       1.266063              0.0104215959             0.00065060928           
       1.268703              0.0105770094             0.00065000358           
       1.271344              0.0102453296            0.000661411757           
       1.273984              0.0092717707            0.000607685274           
       1.276624             0.00964769791            0.000608236837           
       1.279265              0.0112126832            0.000666604983           
       1.281905              0.0116259473            0.000681790831           
       1.284546              0.0101232343            0.000614949186           
       1.287186              0.0101371547             0.00060374508           
       1.289826              0.0111970286            0.000668734659           
       1.292467              0.0102707182            0.000626368969           
       1.295107              0.0106883864             0.00063263064           
       1.297747              0.0105264832              0.0006007725           
       1.300388                0.01139779            0.000681483766           
       1.303028              0.0107774595            0.000632633409           
       1.305669              0.0114780113            0.000668416257           
       1.308309              0.0103812708            0.000629420614           
       1.310949              0.0111723167            0.000652304912           
       1.313590              0.0101422934            0.000602080903           
       1.316230               0.010854179            0.000664670176           
       1.318871              0.0113029577            0.000664283937           
       1.321511              0.0114786854            0.000657019818           
       1.324151                0.01086152            0.000620165716           
       1.326792              0.0115393351            0.000643175597           
       1.329432             0.00975584084            0.000587213354           
       1.332072              0.0106888122            0.000605490404           
       1.334713              0.0110239995            0.000634648988           
       1.337353              0.0118740195            0.000631670388           
       1.339994              0.0114611489            0.000651248796           
       1.342634              0.0101315859            0.000587167132           
       1.345274              0.0113100065            0.000642030064           
       1.347915              0.0101814716            0.000592335171           
       1.350555               0.011775567            0.000648176802           
       1.353195               0.012004791            0.000657669477           
       1.355836               0.011321293            0.000628713869           
       1.358476              0.0109587559            0.000600720957           
       1.361117              0.0118142118            0.000624583122           
       1.363757              0.0123606168            0.000658370701           
       1.366397               0.011943246            0.000627576078           
       1.369038              0.0110310457            0.000609139155           
       1.371678               0.010168047            0.000579670507           
       1.374319              0.0107394066            0.000590604475           
       1.376959              0.0106523041            0.000582289232           
       1.379599              0.0120597766            0.000663985657           
       1.382240              0.0109416799            0.000594414731           
       1.384880               0.010792104            0.000625301909           
       1.387520               0.010825877            0.000594797022           
       1.390161              0.0112730894            0.000576464396           
       1.392801              0.0106438654            0.000583617114           
       1.395442              0.0108499857             0.00059728862           
       1.398082              0.0123324462            0.000596323393           
       1.400722              0.0123652241            0.000625464607           
       1.403363              0.0101866034            0.000597569853           
       1.406003              0.0113570834             0.00059050137           
       1.408644              0.0112707661            0.000616233369           
       1.411284              0.0105072324            0.000563406625           
       1.413924              0.0114773189            0.000586657962           
       1.416565              0.0107265064             0.00056491691           
       1.419205              0.0101690525            0.000573781338           
       1.421845              0.0100396186            0.000569783273           
       1.424486             0.00976137365            0.000540049803           
       1.427126              0.0117520247             0.00061555859           
       1.429767              0.0106880329            0.000552325965           
       1.432407              0.0116210368            0.000602723236           
       1.435047              0.0101631523            0.000529361149           
       1.437688              0.0113132577            0.000566861662           
       1.440328              0.0112733788            0.000577525377           
       1.442968              0.0103793459            0.000566568231           
       1.445609              0.0120238415             0.00059045745           
       1.448249              0.0102109468            0.000557903564           
       1.450890              0.0108043188            0.000570139212           
       1.453530              0.0107496833            0.000594970231           
       1.456170              0.0110281932            0.000584864984           
       1.458811              0.0115865555            0.000573243327           
       1.461451              0.0117036383            0.000577643714           
       1.464092             0.00972337182             0.00052995397           
       1.466732              0.0107592985             0.00055267975           
       1.469372              0.0108009726            0.000540789637           
       1.472013             0.00944016296            0.000545274102           
       1.474653              0.0111165308            0.000582583269           
       1.477293              0.0102103347             0.00057010088           
       1.479934              0.0113861267            0.000574464495           
       1.482574             0.00969754699            0.000512845995           
       1.485215              0.0108810763            0.000553358235           
       1.487855              0.0113207989            0.000571874314           
       1.490495              0.0116805244            0.000578749729           
       1.493136              0.0106946759            0.000546197172           
       1.495776              0.0111369927             0.00055483979           
       1.498416              0.0115543612            0.000583630519           
       1.501057              0.0102552621             0.00053772491           
       1.503697              0.0114991809            0.000556682865           
       1.506338               0.010441927            0.000540168396           
       1.508978              0.0114706552            0.000560584176           
       1.511618              0.0101140502            0.000560604905           
       1.514259             0.00963563924            0.000528281999           
       1.516899              0.0106648855            0.000541146395           
       1.519540             0.00972216064            0.000525007517           
       1.522180             0.00965331969            0.000527741036           
       1.524820             0.00997943865            0.000533570881           
       1.527461              0.0099576182            0.000535623206           
       1.530101             0.00956080488            0.000519593371           
       1.532741              0.0104331885            0.000539631367           
       1.535382              0.0110141848            0.000563379143           
       1.538022               0.011309197            0.000537793785           
       1.540663              0.0109418288            0.000568957993           
       1.543303              0.0105404024            0.000518505513           
       1.545943              0.0105981349            0.000550300709           
       1.548584              0.0104734379             0.00055687368           
       1.551224              0.0105503981            0.000516770594           
       1.553864              0.0106244207            0.000547976969           
       1.556505              0.0108064813            0.000533876242           
       1.559145              0.0102479256            0.000526264614           
       1.561786              0.0101931488            0.000525260465           
       1.564426               0.010541852            0.000517554508           
       1.567066              0.0105184359            0.000541695126           
       1.569707              0.0104539411            0.000530331177           
       1.572347                0.01013683            0.000539511326           
       1.574988             0.00945942783            0.000496069326           
       1.577628             0.00980827002            0.000526729659           
       1.580268             0.00997231448            0.000514595035           
       1.582909             0.00986678012            0.000542556418           
       1.585549              0.0106907195            0.000548359765           
       1.588189             0.00884294367            0.000487839468           
       1.590830               0.009687605            0.000509966076           
       1.593470              0.0093943691            0.000522073245           
       1.596111             0.00926598854             0.00050621095           
       1.598751             0.00975965634            0.000503398218           
       1.601391             0.00948729906            0.000507274778           
       1.604032              0.0092019525            0.000510031934           
       1.606672             0.00873000079            0.000482669391           
       1.609312             0.00943763085            0.000523872928           
       1.611953             0.00965910206            0.000518622479           
       1.614593             0.00843874167            0.000475505725           
       1.617234              0.0103108003            0.000544729316           
       1.619874             0.00956148705            0.000522490393           
       1.622514             0.00851894543            0.000486455716           
       1.625155              0.0100558146            0.000531639286           
       1.627795             0.00929393746            0.000498579922           
       1.630436             0.00901554565            0.000488491755           
       1.633076             0.00831195428            0.000475194844           
       1.635716             0.00990859089            0.000510758641           
       1.638357             0.00934455474            0.000497315857           
       1.640997             0.00885215432            0.000498698233           
       1.643637             0.00940615542            0.000500244776           
       1.646278             0.00940866916            0.000516031456           
       1.648918             0.00793587414            0.000475217667           
       1.651559             0.00941406853            0.000521604854           
       1.654199             0.00869966524            0.000487677874           
       1.656839             0.00970293543            0.000515210758           
       1.659480             0.00790444356            0.000482479451           
       1.662120              0.0093847094             0.00049514059           
       1.664761             0.00803367591            0.000475864068           
       1.667401             0.00913449718            0.000484985433           
       1.670041             0.00891583557            0.000486451368           
       1.672682              0.0094226032            0.000498029596           
       1.675322             0.00760773349            0.000444626768           
       1.677962             0.00871216449            0.000470558418           
       1.680603             0.00910253833            0.000482465377           
       1.683243             0.00893794135            0.000498790844           
       1.685884             0.00787573807            0.000471672634           
       1.688524             0.00840020603            0.000477708364           
       1.691164             0.00880317149            0.000489143199           
       1.693805             0.00830508743            0.000480323046           
       1.696445             0.00859104191            0.000491355905           
       1.699085             0.00872468177            0.000478570881           
       1.701726             0.00899275987             0.00046804865           
       1.704366             0.00814713049            0.000469321092           
       1.707007             0.00849437333            0.000468536023           
       1.709647             0.00893425779            0.000485941055           
       1.712287              0.0081193159            0.000467280782           
       1.714928             0.00962490138            0.000512865924           
       1.717568             0.00896473887            0.000466259028           
       1.720209             0.00806061264            0.000463092483           
       1.722849             0.00862072248            0.000476449666           
       1.725489             0.00809471945            0.000462073024           
       1.728130             0.00777460603            0.000481246596           
       1.730770             0.00795306161            0.000462270708           
       1.733410             0.00798823897             0.00045600942           
       1.736051             0.00865298506             0.00047790732           
       1.738691             0.00818968311            0.000455512277           
       1.741332             0.00843226865            0.000475724686           
       1.743972             0.00836089984            0.000489183123           
       1.746612             0.00929558551            0.000495301767           
       1.749253              0.0090561296            0.000498535218           
       1.751893             0.00857509804            0.000481553473           
       1.754533             0.00763035963            0.000453828439           
       1.757174             0.00934394908            0.000497506005           
       1.759814             0.00875336115            0.000474227848           
       1.762455             0.00881514729            0.000484637093           
       1.765095             0.00850063295            0.000455268571           
       1.767735             0.00914056887            0.000486658283           
       1.770376             0.00856440435            0.000472312567           
       1.773016             0.00841534422            0.000465048292           
       1.775657             0.00840979499            0.000458205733           
       1.778297             0.00914767625            0.000473769785           
       1.780937              0.0079299518            0.000465591806           
       1.783578             0.00891269454             0.00048125726           
       1.786218             0.00814578042            0.000480150204           
       1.788858             0.00801089196            0.000452235333           
       1.791499             0.00839046705            0.000457627375           
       1.794139             0.00797256557            0.000442466194           
       1.796780              0.0087980252            0.000462567259           
       1.799420             0.00942118206            0.000476017903           
       1.802060              0.0100020643            0.000494435045           
       1.804701             0.00923533282             0.00045593353           
       1.807341             0.00983756408            0.000494460805           
       1.809981             0.00951484428            0.000487904107           
       1.812622             0.00859016531            0.000455244226           
       1.815262             0.00975424361            0.000495415147           
       1.817903             0.00876954608            0.000462783647           
       1.820543             0.00843233251            0.000460869972           
       1.823183              0.0088256681            0.000471237158           
       1.825824             0.00919863705            0.000459615109           
       1.828464             0.00825529766            0.000453934298           
       1.831105              0.0093997939            0.000470987485           
       1.833745             0.00831844133            0.000452531419           
       1.836385             0.00886567652            0.000480511989           
       1.839026             0.00936918817            0.000492407846           
       1.841666             0.00880877864            0.000475761306           
       1.844306             0.00822701018            0.000447236955           
       1.846947             0.00892232867            0.000469835789           
       1.849587             0.00944440175            0.000533775504           
       1.852228             0.00853047419            0.000458717665           
       1.854868             0.00778987312            0.000463055207           
       1.857508             0.00836150474            0.000475038992           
       1.860149               0.009488733            0.000515241504           
       1.862789             0.00839440598            0.000467770781           
       1.865429             0.00902844139            0.000506385597           
       1.868070             0.00861870525            0.000488167276           
       1.870710             0.00997717169            0.000513123224           
       1.873351             0.00904742325            0.000494670895           
       1.875991             0.00882949824            0.000496652331           
       1.878631             0.00799041309            0.000463415654           
       1.881272             0.00931868007            0.000497099811           
       1.883912             0.00976030241             0.00052945299           
       1.886553             0.00817646357            0.000479176772           
       1.889193             0.00902804401            0.000502651682           
       1.891833             0.00887379969            0.000517544772           
       1.894474             0.00907346893            0.000518777294           
       1.897114             0.00937924211            0.000510398662           
       1.899754             0.00870615019            0.000493801112           
       1.902395             0.00987677855            0.000515669642           
       1.905035             0.00815408146            0.000496267824           
       1.907676             0.00892701598            0.000489400566           
       1.910316             0.00785675144            0.000471317589           
       1.912956             0.00943813899            0.000505212544           
       1.915597             0.00889594798            0.000493227762           
       1.918237             0.00857008798            0.000499967817           
       1.920878              0.0087570589            0.000503323314           
       1.923518             0.00859910684            0.000498975032           
       1.926158             0.00870314301            0.000495470387           
       1.928799             0.00838250271            0.000480629136           
       1.931439             0.00849368942            0.000496495944           
       1.934079             0.00822341005            0.000509283146           
       1.936720             0.00891196251              0.0004912234           
       1.939360             0.00803845665             0.00049772146           
       1.942001             0.00915549994            0.000486852953           
       1.944641             0.00820289533            0.000469906903           
       1.947281             0.00829018295            0.000468046095           
       1.949922             0.00895727872            0.000502525083           
       1.952562             0.00782377489            0.000484375427           
       1.955202             0.00843081637            0.000502202687           
       1.957843             0.00795972357            0.000475315628           
       1.960483             0.00856023032             0.00051534647           
       1.963124             0.00898740894            0.000517215384           
       1.965764             0.00841580166             0.00047198318           
       1.968404             0.00889938418            0.000480768343           
       1.971045             0.00852882324            0.000479855052           
       1.973685             0.00876946226            0.000510383443           
       1.976326             0.00872521524            0.000502097371           
       1.978966             0.00947499987             0.00052781795           
       1.981606             0.00870451142            0.000516453331           
       1.984247             0.00900870797            0.000521945834           
       1.986887             0.00832770333             0.00049581887           
       1.989527             0.00800686873            0.000480938264           
       1.992168             0.00823507338            0.000506075479           
       1.994808             0.00817845003             0.00050217076           
       1.997449             0.00834398294            0.000496810615           
       2.000089             0.00819584118            0.000490428469           
       2.002729             0.00677577992            0.000446188986           
       2.005370             0.00773316003            0.000471541046           
       2.008010             0.00870405087            0.000522100153           
       2.010650             0.00813591007            0.000508539607           
       2.013291             0.00780820001            0.000477988121           
       2.015931             0.00702645251            0.000450224177           
       2.018572             0.00734435128            0.000492330412           
       2.021212             0.00798206029            0.000504038428           
       2.023852             0.00906203594            0.000508297578           
       2.026493             0.00861142767            0.000517636798           
       2.029133             0.00817616502            0.000494234994           
       2.031774             0.00792884836            0.000510783631           
       2.034414             0.00772440477            0.000463893008           
       2.037054             0.00791010361            0.000481334671           
       2.039695              0.0071176618            0.000453139842           
       2.042335             0.00840519549            0.000511734603           
       2.044975             0.00751850876            0.000478120903           
       2.047616             0.00750506127            0.000476506511           
       2.050256             0.00797698215            0.000495908641           
       2.052897             0.00904301135            0.000537740153           
       2.055537             0.00736660983             0.00046906663           
       2.058177             0.00804835794            0.000480127565           
       2.060818             0.00797580848            0.000500698742           
       2.063458             0.00756283102            0.000508089779           
       2.066098             0.00794856371            0.000491369879           
       2.068739             0.00779196297            0.000494067606           
       2.071379             0.00715048834            0.000485637428           
       2.074020             0.00728099395            0.000479399012           
       2.076660             0.00769674045            0.000496880463           
       2.079300             0.00806648935            0.000521139026           
       2.081941             0.00722335684            0.000451536888           
       2.084581             0.00877667992            0.000525352841           
       2.087222             0.00736976096            0.000464271313           
       2.089862             0.00769974501            0.000516858958           
       2.092502              0.0087094715            0.000532860633           
       2.095143             0.00660402974            0.000479154102           
       2.097783             0.00733147679            0.000488784359           
       2.100423             0.00701957573            0.000460861264           
       2.103064             0.00764391274            0.000499018894           
       2.105704             0.00793200426            0.000505817768           
       2.108345             0.00879474895            0.000511701704           
       2.110985              0.0070744186            0.000490175041           
       2.113625             0.00687838048            0.000487553552           
       2.116266             0.00815106201            0.000538275533           
       2.118906             0.00762428926             0.00048516228           
       2.121546             0.00833827702            0.000497683571           
       2.124187             0.00752407112            0.000496252982           
       2.126827             0.00799434394            0.000517235469           
       2.129468             0.00666813342             0.00047359482           
       2.132108             0.00738866648            0.000485027885           
       2.134748             0.00691065689            0.000467256225           
       2.137389             0.00798191213            0.000523885799           
       2.140029             0.00716785962            0.000444454781           
       2.142670             0.00728270088            0.000478788421           
       2.145310             0.00763521558            0.000477158617           
       2.147950             0.00764954529            0.000491586903           
       2.150591             0.00737782165            0.000477898023           
       2.153231             0.00696397631            0.000477925893           
       2.155871              0.0071593161            0.000468138879           
       2.158512             0.00817550637             0.00052198643           
       2.161152             0.00731869531            0.000478399981           
       2.163793             0.00790991013             0.00049510867           
       2.166433             0.00696107581            0.000476956564           
       2.169073             0.00797332596            0.000499093923           
       2.171714             0.00664678747            0.000452282376           
       2.174354             0.00732380773            0.000496078192           
       2.176995             0.00699679827            0.000482836489           
       2.179635             0.00678036887            0.000502267427           
       2.182275             0.00752642176            0.000499628977           
       2.184916             0.00765175601            0.000486578179           
       2.187556             0.00812270511            0.000496303784           
       2.190196             0.00742308818            0.000495792833           
       2.192837             0.00773732489            0.000503424077           
       2.195477             0.00743798586            0.000470579318           
       2.198118             0.00754635662            0.000486140501           
       2.200758             0.00773946346            0.000505091704           
       2.203398               0.007715817            0.000507545818           
       2.206039             0.00783420407            0.000484020221           
       2.208679             0.00681421085            0.000461918409           
       2.211319             0.00784889375             0.00049860733           
       2.213960             0.00732692975             0.00048819759           
       2.216600             0.00724240302            0.000502107947           
       2.219241             0.00798552675            0.000503898025           
       2.221881             0.00722074988            0.000480146803           
       2.224521             0.00784637527             0.00050664862           
       2.227162             0.00782896332            0.000495953128           
       2.229802              0.0079242318            0.000514581041           
       2.232443             0.00722506587            0.000483605707           
       2.235083              0.0070330209            0.000491209394           
       2.237723             0.00732925772             0.00048121194           
       2.240364             0.00760888367            0.000502384664           
       2.243004             0.00767898753            0.000500664977           
       2.245644             0.00770159978            0.000506420332           
       2.248285             0.00717571609            0.000479032251           
       2.250925             0.00709745102            0.000479306718           
       2.253566              0.0077237189            0.000534545094           
       2.256206             0.00674509026            0.000489545724           
       2.258846             0.00691396755            0.000471487158           
       2.261487             0.00769674028             0.00052213216           
       2.264127             0.00774615947            0.000505883283           
       2.266767             0.00745350476            0.000509456044           
       2.269408             0.00819417323            0.000536356857           
       2.272048             0.00764280494            0.000514905498           
       2.274689             0.00747963729            0.000516091188           
       2.277329             0.00716079665            0.000475463186           
       2.279969             0.00808937173            0.000537917809           
       2.282610              0.0076337285            0.000508015325           
       2.285250             0.00746474457            0.000480827762           
       2.287891             0.00645910924            0.000479539432           
       2.290531             0.00772580581            0.000531507133           
       2.293171             0.00608200145            0.000459366942           
       2.295812             0.00698344002            0.000490254905           
       2.298452             0.00812300454            0.000552925889           
       2.301092             0.00748262362            0.000493070114           
       2.303733             0.00727713008            0.000505872407           
       2.306373             0.00726940298            0.000513566263           
       2.309014             0.00662815395            0.000480825593           
       2.311654             0.00619745421            0.000485188111           
       2.314294             0.00638002826            0.000453542091           
       2.316935             0.00745145251            0.000492172477           
       2.319575             0.00703096649            0.000500921562           
       2.322215              0.0070542325            0.000522907862           
       2.324856             0.00732104801             0.00048976716           
       2.327496             0.00745278037            0.000525440729           
       2.330137             0.00631124265            0.000462700532           
       2.332777             0.00687867272            0.000498079257           
       2.335417             0.00681944929            0.000481126699           
       2.338058             0.00702279195            0.000502832148           
       2.340698             0.00719289808            0.000504886483           
       2.343339             0.00784639064            0.000538927284           
       2.345979              0.0067649521            0.000473429396           
       2.348619             0.00786901674            0.000529267038           
       2.351260             0.00677802435            0.000488346939           
       2.353900             0.00639735451             0.00047293252           
       2.356540             0.00805812282            0.000530028206           
       2.359181             0.00684349635            0.000481603225           
       2.361821             0.00698405837            0.000469969249           
       2.364462             0.00717367174             0.00049815672           
       2.367102             0.00638264118            0.000482886311           
       2.369742             0.00786279742            0.000564136014           
       2.372383             0.00770181867             0.00050556756           
       2.375023             0.00759941617            0.000527916113           
       2.377663             0.00626896688            0.000458455706           
       2.380304             0.00776500237             0.00051874249           
       2.382944             0.00742903051            0.000483278696           
       2.385585             0.00787527299            0.000530679444           
       2.388225             0.00730078249            0.000508555812           
       2.390865             0.00687078103            0.000488284262           
       2.393506             0.00656630286            0.000468336901           
       2.396146             0.00687959617            0.000518326671           
       2.398787             0.00643378357            0.000461941754           
       2.401427             0.00740288609            0.000478283704           
       2.404067             0.00652275758            0.000458966945           
       2.406708             0.00719394909            0.000476222701           
       2.409348             0.00717158297            0.000504341499           
       2.411988             0.00636066899             0.00046536811           
       2.414629             0.00742483476            0.000518451183           
       2.417269             0.00648398091            0.000490147139           
       2.419910             0.00782792487            0.000539803287           
       2.422550             0.00784030058            0.000516858587           
       2.425190              0.0068537038            0.000509391485           
       2.427831             0.00636396413            0.000488095348           
       2.430471             0.00686586512            0.000482993727           
       2.433112             0.00732531621            0.000485802453           
       2.435752             0.00692750305            0.000499975455           
       2.438392               0.006705927            0.000474798131           
       2.441033             0.00767150022            0.000538199444           
       2.443673             0.00782999154            0.000544148565           
       2.446313             0.00719032342            0.000521907816           
       2.448954             0.00764831033            0.000512510835           
       2.451594             0.00761941107            0.000550026811           
       2.454235             0.00739222955            0.000508313816           
       2.456875             0.00783277344            0.000547497885           
       2.459515              0.0078500147            0.000562288977           
       2.462156             0.00804139975            0.000537311607           
       2.464796             0.00763097712            0.000516667206           
       2.467436             0.00832885954            0.000558191805           
       2.470077              0.0082684753            0.000527143169           
       2.472717             0.00789588911             0.00051736089           
       2.475358             0.00722708046            0.000500126066           
       2.477998             0.00793174503            0.000515108142           
       2.480638             0.00747660232            0.000508997246           
       2.483279              0.0072237576            0.000522910557           
       2.485919             0.00772548027            0.000521150711           
       2.488560             0.00674177751            0.000485481421           
       2.491200             0.00724008797            0.000518063633           
       2.493840             0.00718092548            0.000545934845           
       2.496481             0.00693744278            0.000527821962           
       2.499121             0.00732942673            0.000527695851           
       2.501761              0.0070567812            0.000524648458           
       2.504402             0.00829745007            0.000560590294           
       2.507042             0.00712980756            0.000515801924           
       2.509683             0.00763160752             0.00052548858           
       2.512323              0.0063375485            0.000502930484           
       2.514963             0.00715565969            0.000527804702           
       2.517604             0.00753986111            0.000562189287           
       2.520244             0.00693096745            0.000505324023           
       2.522884             0.00715602877            0.000520805887           
       2.525525             0.00761982584               0.000543518           
       2.528165             0.00709613686            0.000516332469           
       2.530806             0.00663817169            0.000508097813           
       2.533446             0.00638751707            0.000487774437           
       2.536086             0.00625435489             0.00047834326           
       2.538727             0.00744218341            0.000500581455           
       2.541367             0.00689291278            0.000486500216           
       2.544008             0.00617285261            0.000475469082           
       2.546648             0.00742427926            0.000530386705           
       2.549288             0.00701893461            0.000526212599           
       2.551929             0.00698882121            0.000516712679           
       2.554569             0.00701245065            0.000498650263           
       2.557209             0.00670604136            0.000492112637           
       2.559850             0.00730544833            0.000515284664           
       2.562490             0.00709699364            0.000524921102           
       2.565131              0.0075562501            0.000561595779           
       2.567771             0.00748823345            0.000539020187           
       2.570411             0.00728760429            0.000525996822           
       2.573052             0.00685322987            0.000516503845           
       2.575692             0.00692254621            0.000515965873           
       2.578332             0.00733313419            0.000533242896           
       2.580973             0.00654810342            0.000499098281           
       2.583613             0.00655996449            0.000487655346           
       2.586254             0.00687455509            0.000498517672           
       2.588894             0.00736113113            0.000535694363           
       2.591534             0.00760925605            0.000563812863           
       2.594175             0.00627217777             0.00050222621           
       2.596815             0.00634013498            0.000507916866           
       2.599456             0.00753810808            0.000525192101           
       2.602096              0.0065310346            0.000492573003           
       2.604736             0.00641240869            0.000499652522           
       2.607377              0.0065306271            0.000490948956           
       2.610017             0.00672405968            0.000489448942           
       2.612657             0.00616182325            0.000498362435           
       2.615298             0.00664685104            0.000505345535           
       2.617938             0.00738802017            0.000569933958           
       2.620579             0.00753690802            0.000552616385           
       2.623219             0.00714437969            0.000537266666           
       2.625859             0.00660924459            0.000502429484           
       2.628500             0.00708158762            0.000516664381           
       2.631140              0.0076497989            0.000545266634           
       2.633780             0.00792632448            0.000554551816           
       2.636421              0.0068807076            0.000529387501           
       2.639061             0.00707057881             0.00050518671           
       2.641702             0.00637141005            0.000490661274           
       2.644342             0.00724109883            0.000525306563           
       2.646982             0.00698960853            0.000508388119           
       2.649623             0.00730787479            0.000544764951           
       2.652263             0.00751994569            0.000547067379           
       2.654904             0.00757842782            0.000549743016           
       2.657544             0.00706504792            0.000499954862           
       2.660184             0.00765453784            0.000550728958           
       2.662825             0.00733186435            0.000551500739           
       2.665465             0.00757332308            0.000542103949           
       2.668105             0.00764030042            0.000573919464           
       2.670746             0.00757970777            0.000528072674           
       2.673386              0.0117456573             0.00067746663           
       2.676027              0.0134475787             0.00071325469           
       2.678667             0.00908895967             0.00057216099           
       2.681307              0.0102812322            0.000597917741           
       2.683948               0.012301371            0.000671982329           
       2.686588               0.011540747            0.000640081833           
       2.689229              0.0117008643            0.000629785408           
       2.691869              0.0101703792            0.000620563638           
       2.694509             0.00923678287            0.000591720605           
       2.697150             0.00807324842            0.000544222766           
       2.699790             0.00769327775            0.000556951246           
       2.702430             0.00707505518            0.000510539877           
       2.705071             0.00576691947            0.000476286054           
       2.707711             0.00712748493            0.000513917195           
       2.710352             0.00711198624            0.000542427122           
       2.712992              0.0071134701            0.000552514243           
       2.715632             0.00776893915            0.000535721037           
       2.718273             0.00669610186            0.000515444344           
       2.720913             0.00613801415            0.000492093043           
       2.723553             0.00691693105             0.00052588911           
       2.726194             0.00716126504            0.000559352501           
       2.728834             0.00787870238            0.000586977924           
       2.731475             0.00769867654             0.00053550422           
       2.734115             0.00801821784             0.00056346556           
       2.736755             0.00776079536            0.000558909547           
       2.739396             0.00729825431            0.000538858025           
       2.742036             0.00710594406            0.000556469457           
       2.744677             0.00724791283            0.000545295684           
       2.747317             0.00638784861            0.000508270558           
       2.749957             0.00762017453            0.000559032768           
       2.752598              0.0073713443            0.000555796703           
       2.755238             0.00693275578            0.000548738763           
       2.757878             0.00785983184            0.000579169227           
       2.760519              0.0069322557            0.000538154065           
       2.763159             0.00756348472            0.000556504224           
       2.765800             0.00848545211            0.000561734093           
       2.768440             0.00826088291            0.000558334153           
       2.771080             0.00872993957            0.000578757504           
       2.773721             0.00670436502            0.000520272575           
       2.776361             0.00706069207              0.0005412854           
       2.779001             0.00675596777            0.000548326276           
       2.781642             0.00578255125            0.000503550034           
       2.784282             0.00710613514             0.00056739179           
       2.786923             0.00741907833            0.000584855299           
       2.789563             0.00653311758            0.000528582695           
       2.792203             0.00701425502            0.000523210791           
       2.794844             0.00822896696            0.000621101614           
       2.797484             0.00709109533            0.000544134669           
       2.800125             0.00756717947            0.000591052658           
       2.802765             0.00702881921            0.000559840094           
       2.805405             0.00680439722            0.000552694416           
       2.808046             0.00691868442            0.000567113998           
       2.810686             0.00671534033            0.000513396818           
       2.813326             0.00605212707            0.000506259692           
       2.815967             0.00836644596            0.000612161188           
       2.818607             0.00700267172            0.000534441685           
       2.821248             0.00745674521            0.000540047328           
       2.823888             0.00758032217            0.000565208858           
       2.826528             0.00645924687            0.000505281663           
       2.829169             0.00727412414            0.000561647387           
       2.831809             0.00609614221            0.000521156872           
       2.834449             0.00671206861            0.000550307073           
       2.837090             0.00702233693            0.000543655205           
       2.839730             0.00751169617            0.000559533529           
       2.842371             0.00660297458            0.000525355477           
       2.845011             0.00828118291            0.000593031378           
       2.847651             0.00703197601            0.000547145998           
       2.850292             0.00637037722            0.000525882304           
       2.852932             0.00787911432            0.000597596096           
       2.855573             0.00638416621            0.000521801715           
       2.858213             0.00615686097            0.000538111831           
       2.860853             0.00842559151            0.000585576023           
       2.863494             0.00713773634            0.000558026623           
       2.866134             0.00611742868            0.000536947505           
       2.868774             0.00622338445             0.00053225976           
       2.871415             0.00694686447            0.000571106832           
       2.874055             0.00682117146            0.000540945891           
       2.876696             0.00756278934            0.000585000635           
       2.879336              0.0074610441            0.000560022593           
       2.881976             0.00652325683            0.000540104989           
       2.884617              0.0061165526            0.000515316124           
       2.887257             0.00670054712            0.000542139909           
       2.889897             0.00802199987            0.000580986582           
       2.892538             0.00646936356            0.000571569944           
       2.895178             0.00675430036            0.000527624454           
       2.897819             0.00720284297            0.000555811544           
       2.900459             0.00742014266            0.000553159099           
       2.903099             0.00772027685            0.000558459864           
       2.905740             0.00684493623            0.000539452859           
       2.908380             0.00695781828            0.000550062585           
       2.911021             0.00737126609            0.000575374686           
       2.913661             0.00663919538            0.000545892716           
       2.916301             0.00624469804             0.00052993092           
       2.918942             0.00720269854            0.000544386439           
       2.921582             0.00652719195             0.00054221828           
       2.924222             0.00738823185            0.000558880286           
       2.926863             0.00661353369            0.000550773098           
       2.929503             0.00761084395            0.000597843314           
       2.932144             0.00700850484            0.000550715402           
       2.934784             0.00884175984            0.000608420272           
       2.937424             0.00658557456            0.000530477829           
       2.940065             0.00595557306            0.000481213212           
       2.942705             0.00830811731            0.000567651607           
       2.945346             0.00730300618            0.000564807375           
       2.947986             0.00682010067             0.00055654171           
       2.950626             0.00822723701            0.000607823081           
       2.953267              0.0063059695            0.000523542295           
       2.955907             0.00766426002            0.000598744488           
       2.958547             0.00708240277            0.000543365825           
       2.961188             0.00694610101            0.000561400906           
       2.963828             0.00708765146            0.000554721087           
       2.966469              0.0069798254            0.000540024238           
       2.969109             0.00653921435            0.000530446138           
       2.971749             0.00675606383             0.00053580605           
       2.974390              0.0069781695            0.000535112308           
       2.977030             0.00778403606             0.00057779722           
       2.979670             0.00852329167            0.000588101505           
       2.982311             0.00911073066            0.000630192808           
       2.984951             0.00833413891            0.000573255062           
       2.987592             0.00689580131            0.000531890818           
       2.990232             0.00777365652            0.000587315738           
       2.992872             0.00836298318            0.000573805126           
       2.995513             0.00905129627            0.000584015262           
       2.998153              0.0131205718            0.000714959216           
       3.000794              0.0104092132            0.000616821534           
       3.003434             0.00990715813            0.000602671092           
       3.006074               0.034764096             0.00111311794           
       3.008715               0.108526612              0.0018985072           
       3.011355               0.213586097             0.00256834378           
       3.013995               0.123443783              0.0019578584           
       3.016636              0.0741143639             0.00148554442           
       3.019276               0.139734138             0.00200507323           
       3.021917               0.479469425             0.00357133531           
       3.024557                  1.416017             0.00603412609           
       3.027197                1.15107535              0.0053041182           
       3.029838               0.560035877             0.00375220225           
       3.032478               0.267057268             0.00259371273           
       3.035118               0.071148288             0.00135671831           
       3.037759              0.0814897571             0.00145010107           
       3.040399               0.108769708             0.00172814627           
       3.043040               0.464672007             0.00361568608           
       3.045680               0.399663328             0.00315492304           
       3.048320               0.101585221             0.00162518965           
       3.050961               0.114578797             0.00175641302           
       3.053601               0.105295195             0.00162165982           
       3.056242              0.0844291898             0.00154390952           
       3.058882               0.087138565             0.00168252009           
       3.061522               0.070507071             0.00148488621           
       3.064163              0.0858104781             0.00161749693           
       3.066803               0.163936905             0.00235370063           
       3.069443               0.109515432             0.00201274405           
       3.072084              0.0377091629              0.0011500435           
       3.074724              0.0444539174             0.00139447335           
       3.077365              0.0451394783             0.00145461162           
       3.080005              0.0103297912            0.000699791293           
       3.082645              0.0143044567            0.000865095722           
       3.085286              0.0149665574            0.000891871788           
       3.087926              0.0125703204            0.000811062833           
       3.090566              0.0122462162            0.000784373338           
       3.093207              0.0103219183            0.000749354545           
       3.095847             0.00979613155            0.000699712467           
       3.098488             0.00865222882            0.000729156618           
       3.101128              0.0085852866            0.000731001492           
       3.103768             0.00881472447            0.000726769645           
       3.106409             0.00861418312            0.000764629177           
       3.109049             0.00781404753            0.000698867628           
       3.111690             0.00905002252            0.000739199256           
       3.114330             0.00798803814            0.000709248997           
       3.116970             0.00838029851            0.000732031572           
       3.119611              0.0104020795            0.000868118289           
       3.122251               0.019771241             0.00125193393           
       3.124891              0.0330176257             0.00163291647           
       3.127532              0.0237940084             0.00135610386           
       3.130172              0.0152867575             0.00110575034           
       3.132813             0.00932902625             0.00085038983           
       3.135453             0.00897338956            0.000827153246           
       3.138093             0.00660832902            0.000769124497           
       3.140734             0.00800564168            0.000781000849           
       3.143374             0.00673276638            0.000757440528           
       3.146014             0.00789950781            0.000883251154           
       3.148655             0.00724395101            0.000786257147           
       3.151295             0.00637516522            0.000786031115           
       3.153936              0.0048702756            0.000663642748           
       3.156576             0.00536802737            0.000687253738           
       3.159216             0.00558352632            0.000704418694           
       3.161857             0.00719447317            0.000796351859           
       3.164497             0.00699672363            0.000825156818           
       3.167138             0.00840493284             0.00093445668           
       3.169778             0.00429594669            0.000657051914           
       3.172418             0.00589918668            0.000762125012           
       3.175059             0.00689053445            0.000730223958           
       3.177699             0.00528743068            0.000677365569           
       3.180339             0.00606989348            0.000777592485           
       3.182980             0.00700830317            0.000863864879           
       3.185620             0.00595535636            0.000810994647           
       3.188261               0.005366332            0.000783582424           
       3.190901             0.00608893384            0.000767657231           
       3.193541             0.00521000422            0.000746137391           
       3.196182             0.00649980181            0.000868515007           
       3.198822             0.00566056947            0.000810779712           
       3.201463             0.00773829598            0.000931639708           
       3.204103             0.00486957851            0.000734548774           
       3.206743               0.004874245            0.000734831668           
       3.209384              0.0042317263            0.000739747359           
       3.212024             0.00605224047             0.00082479261           
       3.214664             0.00713317032             0.00101822288           
       3.217305             0.00708667234            0.000964731393           
       3.219945             0.00555536175            0.000879155514           
       3.222586             0.00592242176             0.00086460274           
       3.225226              0.0038725866            0.000775592929           
       3.227866             0.00583297371            0.000870000902           
       3.230507             0.00597899191            0.000913069295           
       3.233147             0.00681112089             0.00098240787           
       3.235787             0.00548483995             0.00090219277           
       3.238428              0.0063895997             0.00105081573           
       3.241068             0.00482106862             0.00085348538           
       3.243709             0.00580813421            0.000967854042           
       3.246349             0.00617877524            0.000910005128           
       3.248989             0.00448162283            0.000915120519           
       3.251630             0.00485000554            0.000916739078           
       3.254270             0.00440415695            0.000780749642           
       3.256911             0.00694031226             0.00106939668           
       3.259551             0.00479011252            0.000956471853           
       3.262191              0.0061595485             0.00110787538           
       3.264832             0.00695606836             0.00123013398           
       3.267472             0.00439052992            0.000916814734           
       3.270112             0.00577258566             0.00116177136           
       3.272753             0.00450344568            0.000939253286           
       3.275393             0.00488823355            0.000998469282           
       3.278034             0.00589719984             0.00109730181           
       3.280674             0.00503715388             0.00110047732           
       3.283314             0.00538594097             0.00101772137           
       3.285955             0.00470912036            0.000981872919           
       3.288595             0.00508162978             0.00113475351           
       3.291235             0.00640028057             0.00130914886           
       3.293876             0.00632612203             0.00132024542           
       3.296516             0.00685252308             0.00131914495           
       3.299157             0.00916375445             0.00150630334           
       3.301797              0.0109794606              0.0018807535           
       3.304437             0.00581746556             0.00118608869           
       3.307078             0.00613137785             0.00134133755           
       3.309718             0.00342509918             0.00103478689           
       3.312359              0.0065948334             0.00143621485           
       3.314999             0.00695491572             0.00145216263           
       3.317639             0.00443269933             0.00110874745           
       3.320280             0.00591823579             0.00136211006           
       3.322920             0.00676903106             0.00148124905           
       3.325560              0.0051397657             0.00129161013           
       3.328201             0.00733064431             0.00138922534           
       3.330841             0.00467795085             0.00135064849           
       3.333482             0.00490051953             0.00130669092           
       3.336122             0.00487393683             0.00130374108           
       3.338762             0.00689111654               0.001790756           
       3.341403             0.00765137236             0.00180305993           
       3.344043               0.006629634             0.00161136458           
       3.346683             0.00406588392             0.00128830173           
       3.349324              0.0035983204             0.00136264723           
       3.351964             0.00287936304             0.00128898182           
       3.354605              0.0083405527             0.00250893961           
       3.357245             0.00300031117             0.00135748081           
       3.359885             0.00354557522             0.00118108043           
       3.362526             0.00489235892             0.00173497615           
       3.365166             0.00272846282             0.00122206472           
       3.367807             0.00447472466             0.00200290038           
       3.370447             0.00306770892             0.00137564663           
       3.373087             0.00560252406              0.0019880117           
       3.375728             0.00801314945             0.00268329191           
       3.378368             0.00198484875             0.00198198292           
       3.381008             0.00330685097             0.00190731158           
       3.383649             0.00563670384             0.00199761322           
       3.386289             0.00394115821              0.0019769299           
       3.388930             0.00499972876             0.00352205288           
       3.391570             0.00375036854             0.00215785427           
       3.394210              0.0100041808             0.00446011311           
       3.396851             0.00745579174             0.00430700908           
       3.399491             0.00731478484             0.00426728621           
       3.402131           -2.66214301e-05                         0           
       3.404772             0.00972802438             0.00984871537           
       3.407412                       nan                       nan           
       3.410053           -2.66998792e-05                         0           
       3.412693                       nan                       nan           
       3.415333           -2.67509022e-05                         0           
