################################################################################
# EDF_DataBlockID                     0.Image.Psd
# EDF_BinarySize                      2105344
# EDF_HeaderSize                      2560
# ByteOrder                           LowByteFirst
# DataType                            FloatValue
# Dim_1                               512
# Dim_2                               1028
# Image                               0
# HeaderID                            EH:000000:000000:000000
# Size                                2105344
# Center_1                            304.9000
# Center_2                            588.7000
# Comment                             Xenocs_Cell_Window - 20251028_20perc_iodine_1.23mg
# DDummy                              0.6
# Date                                2025-10-30T07:30:13
# Delta                               21.910000
# Dummy                               -1.5
# ExposureTime                        360
# Gamma                               15.360000
# Intensity1                          8.49849e-10
# PSize_1                             7.5e-05
# PSize_2                             7.5e-05
# Pressure                            0.0324593
# SampleDistance                      0.115750
# SampleEnvKind                       large
# SampleEnvPN                         ElectroChemical cell
# SampleEnvSN                         1141
# Thickness                           0
# Wavelength                          1.541891e-10
# Wavelength                          1.54189e-10
# aux                                 0
# aux_dial                            0.002375
# beamx                               588.434
# beamx_dial                          588.434
# beamz                               657.808
# beamz_dial                          657.808
# det0x                               0
# det0x_dial                          6.36945
# det0xvd                             0
# det0xvd_dial                        0
# det0y                               450.002
# det0y_dial                          481.635
# det0z                               0
# det0z_dial                          1.23302
# det0zvd                             0
# det0zvd_dial                        0
# mag                                 1.818
# mag_dial                            1.818
# om                                  0.2499
# om_dial                             -0.610199
# phi                                 -0.0120535
# phi_dial                            0
# ry                                  0.599993
# ry_dial                             0.599993
# s1bot                               0.8
# s1bot_dial                          -1.66094
# s1hl                                0.8
# s1hl_dial                           -0.608437
# s1hr                                0.8
# s1hr_dial                           0.970938
# s1top                               0.8
# s1top_dial                          -0.461562
# s2bot                               0.45
# s2bot_dial                          1.36109
# s2hl                                0.45
# s2hl_dial                           -0.83375
# s2hr                                0.45
# s2hr_dial                           -0.118594
# s2top                               0.45
# s2top_dial                          1.44734
# w2theta                             32
# w2theta_dial                        32
# waxsch                              19.2605
# waxsch_dial                         -32.7355
# waxsh                               137.085
# waxsh_dial                          -43.5338
# waxsth                              26.0607
# waxsth_dial                         -19.4086
# waxsz                               67.0407
# waxsz_dial                          -23.7954
# wind                                65.9854
# wind_dial                           66.0041
# wpsi                                124
# wpsi_dial                           124
# wstod                               115
# wstod_dial                          115
# x                                   0
# x_dial                              1.00969
# z                                   0
# z_dial                              13.3172
# CountCutoff                         6807993
# DetectorModel                       Dectris EIGER2 Si 500K, S/N E-01-0554
# ThresholdSetting                    4023.88989258
# Saturation                          0
# FlatField                           Corrected
# BackgroundReductionExtra            0.02
# BackgroundCorrectionConstant        0.0026712
# Detector                            0
# Monitor                             0
# Pil_Roi0                            0
# SumForIntensity1                    3.05946e+08
# TransmittedFlux                     849849
# det                                 0
# mon                                 0
# pilai0                              3.05946e+08
# pilai1                              770311
# pilct0                              5.30413e+08
# pilct1                              770311
# pilroi0                             0
# pilroi1                             0
# sec                                 1
# title                               20251028_20perc_iodine_1.23mg_1_00374.edf
# usaxs0                              0
# Operation                           Azimuthal average I(q)
# Error_model                         ErrorModel.poisson
# Geometrical_correction              True
# Transmission_correction             True
# Thickness_correction                False
# Binning mode                        Uniform
# Binning factor                      1.0
# Psi                                 0.0
# Omega                               0.2499
# MaskInvalidPixels                   True
# DetectorEdge                        3
# MaskFiles                           ['WAXS_corrected.edf']
################################################################################
    q(A⁻¹)                Intensity(a.u.)            Sigma_I(a.u.)            
       0.693100              0.0166625469             0.00863204861           
       0.695741             0.00276371649             0.00286878267           
       0.698381             0.00841895697             0.00613328161           
       0.701021            -2.3852742e-05                         0           
       0.703662           -2.38417698e-05                         0           
       0.706302              0.0104073613             0.00430807126           
       0.708942              0.0114365571             0.00582882838           
       0.711583              0.0110841171             0.00496901107           
       0.714223             0.00294713368             0.00295814358           
       0.716864             0.00759056743             0.00310618442           
       0.719504              0.0148499669             0.00468835743           
       0.722144             0.00375918315             0.00218449739           
       0.724785             0.00397908425             0.00179278314           
       0.727425             0.00294186453             0.00208539138           
       0.730065             0.00583772715             0.00207797038           
       0.732706             0.00979181589             0.00225994474           
       0.735346             0.00616067505              0.0023367081           
       0.737987              0.0105971156             0.00216561484           
       0.740627             0.00686708539             0.00260111822           
       0.743267             0.00563376795             0.00157803091           
       0.745908             0.00518707103             0.00164280437           
       0.748548             0.00571363729             0.00158926207           
       0.751189             0.00482645616             0.00196820303           
       0.753829             0.00676868326             0.00214255961           
       0.756469              0.0065778832             0.00170316704           
       0.759110             0.00585185214             0.00169290027           
       0.761750             0.00804891067             0.00175555289           
       0.764390             0.00585608756             0.00156730894           
       0.767031             0.00755119179             0.00154119553           
       0.769671             0.00735330093             0.00189716805           
       0.772312              0.0081964944             0.00152486029           
       0.774952             0.00568672114               0.001715168           
       0.777592             0.00792142945             0.00147446568           
       0.780233             0.00639414342             0.00159826153           
       0.782873             0.00803733075             0.00171378056           
       0.785513             0.00712021601             0.00172444621           
       0.788154             0.00495638276             0.00120356446           
       0.790794             0.00706294819             0.00171766704           
       0.793435             0.00700612297             0.00153686269           
       0.796075             0.00718877052             0.00149964914           
       0.798715             0.00740766955             0.00179893676           
       0.801356             0.00608315374              0.0014030573           
       0.803996             0.00504472089             0.00130263367           
       0.806637             0.00509109354             0.00104140938           
       0.809277             0.00922696975             0.00151749346           
       0.811917             0.00939199674             0.00143124471           
       0.814558             0.00657429469             0.00124454147           
       0.817198             0.00552965015             0.00108437289           
       0.819838             0.00671786764             0.00120964451           
       0.822479             0.00811042936             0.00156074898           
       0.825119             0.00957164617             0.00144310582           
       0.827760             0.00623762104             0.00118006842           
       0.830400             0.00887005983             0.00132445185           
       0.833040             0.00627224711             0.00116685836           
       0.835681             0.00869930949             0.00156222665           
       0.838321             0.00611903173             0.00109970632           
       0.840961             0.00794502195             0.00136530258           
       0.843602             0.00705606195             0.00117991639           
       0.846242             0.00806773811             0.00126148228           
       0.848883              0.0084809493             0.00132359241           
       0.851523              0.0074663881             0.00122647524           
       0.854163             0.00749376072             0.00130669006           
       0.856804             0.00843989838             0.00124685865           
       0.859444             0.00936137629              0.0012866455           
       0.862085             0.00844929757             0.00127400576           
       0.864725             0.00644355717             0.00113859162           
       0.867365             0.00674519362             0.00108023501           
       0.870006             0.00642227604             0.00100443863           
       0.872646             0.00828488061             0.00119632121           
       0.875286             0.00684982964             0.00104652009           
       0.877927             0.00592152594            0.000938924847           
       0.880567             0.00673171048             0.00103715819           
       0.883208             0.00845326124             0.00115128698           
       0.885848             0.00573207772             0.00098435266           
       0.888488             0.00561928021            0.000914132792           
       0.891129             0.00545044234            0.000924415039           
       0.893769             0.00675276639            0.000984726739           
       0.896410              0.0076969968            0.000980199971           
       0.899050              0.0067816296             0.00101182731           
       0.901690             0.00750895658             0.00115977277           
       0.904331             0.00775103328             0.00104464474           
       0.906971             0.00556251782            0.000941453598           
       0.909611             0.00699073144            0.000960768235           
       0.912252             0.00632786279            0.000944152221           
       0.914892             0.00554376674            0.000965720432           
       0.917533             0.00658792785            0.000995893322           
       0.920173             0.00698313139            0.000951304319           
       0.922813             0.00897747245             0.00113189783           
       0.925454             0.00763392146            0.000939884435           
       0.928094             0.00749544485            0.000994263523           
       0.930734             0.00747896223             0.00106925704           
       0.933375              0.0073288796             0.00104806865           
       0.936015             0.00628063018            0.000881171979           
       0.938656             0.00869696924             0.00111236447           
       0.941296             0.00736571191            0.000927749393           
       0.943936              0.0070708898            0.000891408144           
       0.946577             0.00852078233            0.000972072314           
       0.949217             0.00731683277            0.000828352088           
       0.951858             0.00718642324            0.000859357143           
       0.954498             0.00784045456             0.00103896828           
       0.957138             0.00665894855            0.000907091253           
       0.959779             0.00696437705            0.000914483057           
       0.962419             0.00863774351             0.00101166388           
       0.965059             0.00941656957             0.00111093887           
       0.967700              0.0075411052             0.00101822888           
       0.970340             0.00859461243             0.00096191293           
       0.972981              0.0074956288            0.000818447385           
       0.975621             0.00729400121            0.000858896701           
       0.978261             0.00821092661            0.000865880769           
       0.980902             0.00754597249            0.000993148554           
       0.983542             0.00840274037            0.000928084683           
       0.986182             0.00731994567            0.000850455066           
       0.988823             0.00755935986             0.00083918934           
       0.991463             0.00825298938            0.000935502693           
       0.994104              0.0101843811              0.0010137733           
       0.996744             0.00767003683             0.00089736478           
       0.999384             0.00814235528             0.00082688538           
       1.002025             0.00742370418              0.0008812441           
       1.004665             0.00850097748            0.000861802456           
       1.007306             0.00812739047            0.000838340003           
       1.009946             0.00800469735            0.000848511404           
       1.012586             0.00742664487            0.000796002169           
       1.015227             0.00805494106            0.000890594409           
       1.017867             0.00673328671            0.000782558788           
       1.020507             0.00889388785            0.000871183825           
       1.023148             0.00775185884            0.000877605542           
       1.025788             0.00649736627            0.000736710894           
       1.028429             0.00733937282            0.000820313964           
       1.031069             0.00910770861            0.000859928926           
       1.033709             0.00851689199            0.000883960451           
       1.036350             0.00880462501            0.000807216711           
       1.038990             0.00936131969            0.000847640248           
       1.041630             0.00710532168            0.000770235303           
       1.044271             0.00878219781             0.00080533242           
       1.046911             0.00868392872            0.000842351946           
       1.049552             0.00622264337             0.00074915455           
       1.052192             0.00964502409            0.000851660873           
       1.054832             0.00965021485            0.000859639533           
       1.057473             0.00998931854            0.000862183548           
       1.060113             0.00644808121            0.000675573757           
       1.062754             0.00805127879            0.000770740529           
       1.065394             0.00816122625            0.000820417015           
       1.068034              0.0101713182            0.000833338636           
       1.070675             0.00930507496             0.00083143499           
       1.073315             0.00940923181            0.000848059435           
       1.075955             0.00980651496            0.000817343942           
       1.078596             0.00876630276            0.000821311563           
       1.081236             0.00946496478            0.000817198552           
       1.083877             0.00940668009            0.000807370355           
       1.086517             0.00763083199            0.000779747311           
       1.089157             0.00841850261            0.000849807119           
       1.091798             0.00993140039            0.000809221393           
       1.094438             0.00911482691             0.00077273813           
       1.097078              0.0082599047            0.000705523967           
       1.099719             0.00832166742            0.000765979853           
       1.102359             0.00728410406            0.000671140687           
       1.105000             0.00842687559            0.000807190957           
       1.107640             0.00826004256            0.000764127617           
       1.110280             0.00957366076            0.000750603082           
       1.112921              0.0108028212            0.000856508401           
       1.115561             0.00885965607            0.000737200006           
       1.118202             0.00836087292            0.000716822682           
       1.120842              0.0107861019            0.000855704035           
       1.123482             0.00800032681            0.000733743379           
       1.126123             0.00915207617            0.000752739352           
       1.128763             0.00916587998            0.000758471716           
       1.131403             0.00855023596            0.000705881305           
       1.134044             0.00746789394             0.00067882543           
       1.136684             0.00906782419            0.000797514191           
       1.139325             0.00988687902            0.000767131617           
       1.141965             0.00866767473            0.000723024805           
       1.144605             0.00925643752            0.000712436031           
       1.147246             0.00797710785            0.000676858383           
       1.149886             0.00804682855            0.000677396564           
       1.152527             0.00696758969            0.000639502035           
       1.155167             0.00785449471            0.000645817545           
       1.157807             0.00897664188            0.000740243534           
       1.160448              0.0102094537             0.00077090801           
       1.163088             0.00841351797            0.000667531092           
       1.165728             0.00937775358            0.000723575165           
       1.168369              0.0102799438            0.000764580929           
       1.171009             0.00919358584            0.000701704011           
       1.173650             0.00890334479            0.000708657459           
       1.176290             0.00899449247            0.000696053092           
       1.178930              0.0107040909            0.000744209743           
       1.181571             0.00951673411            0.000715636299           
       1.184211             0.00871258408            0.000687161764           
       1.186851             0.00953663579            0.000702881814           
       1.189492             0.00946446485            0.000695506418           
       1.192132             0.00998817805            0.000706473562           
       1.194773             0.00857317767            0.000657380928           
       1.197413              0.0097274134            0.000670925907           
       1.200053              0.0100781232            0.000700265306           
       1.202694             0.00942485057            0.000643968165           
       1.205334             0.00940414865            0.000693233519           
       1.207975              0.0104119907            0.000696266436           
       1.210615              0.0100714929            0.000755436403           
       1.213255             0.00981213652            0.000667708953           
       1.215896              0.0100678433            0.000688608169           
       1.218536              0.0098113125            0.000653636236           
       1.221176             0.00930971555             0.00069223297           
       1.223817             0.00978295913            0.000666122131           
       1.226457             0.00839339739            0.000629433838           
       1.229098              0.0100565582            0.000688945268           
       1.231738               0.010577792            0.000710051328           
       1.234378             0.00953802128            0.000633559828           
       1.237019             0.00875033401            0.000625337986           
       1.239659              0.0107086064            0.000685755429           
       1.242299              0.0101551531            0.000659314905           
       1.244940              0.0103535675            0.000647459001           
       1.247580              0.0111830188            0.000693472506           
       1.250221              0.0104415777            0.000665954758           
       1.252861              0.0105885947            0.000638439823           
       1.255501              0.0109774164            0.000705836737           
       1.258142               0.010730829            0.000655768481           
       1.260782              0.0101976283            0.000653100794           
       1.263423             0.00984024676            0.000616461399           
       1.266063              0.0117510784            0.000690483771           
       1.268703              0.0110283786            0.000663363562           
       1.271344              0.0115880654            0.000703033284           
       1.273984              0.0105378741            0.000647493405           
       1.276624              0.0101979738            0.000624998957           
       1.279265               0.010764164            0.000652777849           
       1.281905             0.00957216097             0.00061830599           
       1.284546              0.0111569565            0.000645229081           
       1.287186              0.0100420146            0.000600575302           
       1.289826              0.0110115385            0.000662808265           
       1.292467              0.0114452493            0.000660851577           
       1.295107              0.0105352495            0.000627737449           
       1.297747              0.0110606339             0.00061548841           
       1.300388             0.00946895316            0.000620808491           
       1.303028              0.0093362545            0.000588493595           
       1.305669               0.010649042            0.000643473145           
       1.308309             0.00985766224             0.00061300518           
       1.310949              0.0103288796            0.000626855028           
       1.313590              0.0102197343            0.000604043263           
       1.316230              0.0120964004            0.000701289367           
       1.318871              0.0113239849            0.000664536464           
       1.321511               0.011172227            0.000647834012           
       1.324151               0.011336684            0.000633237968           
       1.326792               0.010168572            0.000603435179           
       1.329432              0.0111419253            0.000627198726           
       1.332072              0.0121138476            0.000644236118           
       1.334713              0.0108501725            0.000629279809           
       1.337353              0.0107287035            0.000600104298           
       1.339994              0.0118779906            0.000662621955           
       1.342634              0.0106575239            0.000601883802           
       1.345274              0.0110234381            0.000633496103           
       1.347915              0.0090275389            0.000557453189           
       1.350555              0.0110912993            0.000628717079           
       1.353195              0.0111743841            0.000634167028           
       1.355836              0.0102025031            0.000596512941           
       1.358476              0.0103488121            0.000583443603           
       1.361117             0.00966566137            0.000564631537           
       1.363757              0.0100779042            0.000594151248           
       1.366397              0.0107636031            0.000595450282           
       1.369038              0.0111056806            0.000610860775           
       1.371678              0.0107482885            0.000595653319           
       1.374319               0.010406027            0.000581046033           
       1.376959              0.0111234572            0.000594700565           
       1.379599              0.0113065618            0.000642563159           
       1.382240              0.0109365442            0.000593948913           
       1.384880              0.0118961378            0.000656147023           
       1.387520              0.0119966737             0.00062579075           
       1.390161              0.0107640585            0.000562989784           
       1.392801              0.0111138621            0.000596035749           
       1.395442              0.0117342442            0.000620809987           
       1.398082              0.0106705342            0.000554385407           
       1.400722              0.0111478231            0.000593551292           
       1.403363              0.0119290821            0.000646307162           
       1.406003              0.0118099127            0.000601827906           
       1.408644               0.010998379            0.000608407148           
       1.411284              0.0112639267            0.000583020955           
       1.413924              0.0114330057            0.000585202847           
       1.416565              0.0119912247            0.000596964731           
       1.419205              0.0110591794            0.000598038441           
       1.421845               0.010975362            0.000595418043           
       1.424486              0.0110712533            0.000574828396           
       1.427126              0.0117110815            0.000614147978           
       1.429767              0.0114086478            0.000570328574           
       1.432407              0.0106050021            0.000575456303           
       1.435047              0.0113087228            0.000558092392           
       1.437688              0.0114769126            0.000570633492           
       1.440328              0.0117911112            0.000590313704           
       1.442968              0.0111378354            0.000586582497           
       1.445609              0.0117481557            0.000583328651           
       1.448249              0.0106800375            0.000570261425           
       1.450890              0.0102778431            0.000555769465           
       1.453530             0.00985431472            0.000569340516           
       1.456170              0.0105419803            0.000571512867           
       1.458811              0.0111063835             0.00056093126           
       1.461451              0.0100495848            0.000534977036           
       1.464092              0.0103538338            0.000546564946           
       1.466732             0.00974963562            0.000525820171           
       1.469372              0.0107332447            0.000538795451           
       1.472013              0.0099933038            0.000560713673           
       1.474653              0.0110993866            0.000581814224           
       1.477293              0.0112462092             0.00059799324           
       1.479934             0.00969728672            0.000529860787           
       1.482574              0.0113444668            0.000554382538           
       1.485215               0.010826086            0.000551655131           
       1.487855               0.010773568            0.000557575016           
       1.490495              0.0108718388            0.000558049352           
       1.493136              0.0104365054            0.000539268014           
       1.495776               0.010603089            0.000541079787           
       1.498416              0.0115737987            0.000583800499           
       1.501057              0.0104096682            0.000541460391           
       1.503697               0.011377224            0.000553418958           
       1.506338              0.0117525347            0.000572751309           
       1.508978               0.010499538            0.000536035179           
       1.511618              0.0113827721            0.000594401417           
       1.514259              0.0103310328            0.000546712359           
       1.516899              0.0115280183            0.000562309571           
       1.519540              0.0120580957            0.000584366034           
       1.522180               0.010595613            0.000552595113           
       1.524820              0.0104681427            0.000546179451           
       1.527461              0.0108474325            0.000558735935           
       1.530101              0.0096049465            0.000520505503           
       1.532741             0.00986857857            0.000524538579           
       1.535382              0.0115824463            0.000577412536           
       1.538022             0.00920679992            0.000484970947           
       1.540663              0.0104485265            0.000555679333           
       1.543303              0.0107671685            0.000523765652           
       1.545943              0.0109399546             0.00055879767           
       1.548584              0.0103279309            0.000552688208           
       1.551224              0.0110128677            0.000527685374           
       1.553864              0.0100063374            0.000531506676           
       1.556505              0.0108477763            0.000534601629           
       1.559145              0.0105014936            0.000532443093           
       1.561786              0.0107489202            0.000539093911           
       1.564426             0.00971285976            0.000496515342           
       1.567066               0.010583907            0.000543080027           
       1.569707              0.0104664423            0.000530356812           
       1.572347              0.0109511057            0.000560453965           
       1.574988              0.0105281302            0.000523054614           
       1.577628              0.0103039238            0.000539578157           
       1.580268              0.0107964779            0.000535143351           
       1.582909             0.00995244931            0.000544607531           
       1.585549             0.00945812836            0.000515497059           
       1.588189             0.00969620516            0.000510553054           
       1.590830             0.00980822674            0.000512849339           
       1.593470              0.0100522385            0.000539747319           
       1.596111             0.00990477497            0.000523081594           
       1.598751             0.00952038896            0.000496916288           
       1.601391             0.00939540123            0.000504534787           
       1.604032              0.0095389508            0.000519002148           
       1.606672             0.00970805972            0.000508710044           
       1.609312              0.0103534223            0.000548400577           
       1.611953              0.0101831981             0.00053221429           
       1.614593             0.00985226992            0.000513507192           
       1.617234             0.00851576553            0.000494775155           
       1.619874             0.00967459692            0.000525283192           
       1.622514               0.009366313             0.00050979574           
       1.625155             0.00950750416             0.00051665802           
       1.627795              0.0096330232            0.000507314986           
       1.630436             0.00956521963            0.000502886733           
       1.633076             0.00924843234            0.000500974573           
       1.635716              0.0100276246            0.000513535278           
       1.638357             0.00925979692            0.000494783499           
       1.640997             0.00964986069            0.000520397664           
       1.643637              0.0095199945             0.00050298648           
       1.646278             0.00888464677            0.000501179889           
       1.648918             0.00910206184            0.000508658796           
       1.651559             0.00972737889            0.000529922474           
       1.654199             0.00885378502            0.000491708531           
       1.656839             0.00963816906             0.00051320644           
       1.659480             0.00856558447            0.000501976223           
       1.662120             0.00947387859            0.000497214172           
       1.664761             0.00941646653            0.000514909872           
       1.667401              0.0082000425            0.000459257121           
       1.670041             0.00880068358            0.000483034424           
       1.672682             0.00941664867            0.000497598841           
       1.675322              0.0081261888            0.000459275088           
       1.677962             0.00924633854            0.000484503463           
       1.680603             0.00825181103            0.000459114498           
       1.683243             0.00928726854            0.000508165527           
       1.685884             0.00891615298            0.000501585853           
       1.688524             0.00893527407            0.000492417287           
       1.691164              0.0088476255            0.000490107423           
       1.693805             0.00913643283            0.000503513511           
       1.696445             0.00841578766            0.000486051314           
       1.699085             0.00908536843            0.000488094844           
       1.701726              0.0082244672            0.000447362792           
       1.704366             0.00816358226             0.00046953676           
       1.707007             0.00861904768            0.000471702776           
       1.709647             0.00861059904            0.000476795899           
       1.712287             0.00907845519            0.000493839306           
       1.714928             0.00873984241            0.000488448721           
       1.717568             0.00796095829             0.00043913958           
       1.720209             0.00874503315            0.000482087545           
       1.722849              0.0100604197            0.000514416298           
       1.725489             0.00956536402            0.000502021065           
       1.728130              0.0097537287            0.000538735119           
       1.730770             0.00812177981            0.000466891839           
       1.733410             0.00873251537            0.000476518148           
       1.736051             0.00840556507            0.000470766595           
       1.738691             0.00984735633            0.000499215246           
       1.741332             0.00887984933            0.000487919016           
       1.743972             0.00845985257            0.000491799212           
       1.746612             0.00917427798             0.00049178913           
       1.749253             0.00896252825             0.00049567986           
       1.751893             0.00858433793            0.000481548297           
       1.754533             0.00908040609            0.000494804129           
       1.757174             0.00877029338            0.000481727714           
       1.759814             0.00788977168            0.000449980116           
       1.762455             0.00909182406            0.000491913625           
       1.765095             0.00793302472            0.000439564811           
       1.767735              0.0085494766            0.000470401552           
       1.770376             0.00902245206            0.000484512166           
       1.773016             0.00840438281            0.000464490141           
       1.775657             0.00825232854            0.000453646479           
       1.778297             0.00773480208            0.000435409645           
       1.780937             0.00851753534            0.000482268063           
       1.783578             0.00895337011            0.000482089339           
       1.786218             0.00895614562            0.000503190945           
       1.788858             0.00937984542            0.000489083903           
       1.791499             0.00758059531            0.000434742461           
       1.794139             0.00843960537            0.000454991822           
       1.796780              0.0096127383             0.00048324495           
       1.799420             0.00916369976            0.000469210249           
       1.802060              0.0083411826            0.000451273378           
       1.804701              0.0089228694            0.000447908187           
       1.807341             0.00853984417            0.000460441577           
       1.809981             0.00879941969             0.00046894523           
       1.812622             0.00863609321            0.000456208971           
       1.815262             0.00917090767            0.000480109299           
       1.817903             0.00900053117            0.000468581343           
       1.820543             0.00847589527            0.000461805199           
       1.823183             0.00839505003            0.000459344851           
       1.825824             0.00870480158            0.000446862045           
       1.828464             0.00871578144            0.000466166725           
       1.831105             0.00843847348               0.000446009           
       1.833745             0.00836178465            0.000453459728           
       1.836385             0.00857685289            0.000472360685           
       1.839026             0.00878814372             0.00047663292           
       1.841666             0.00909824535            0.000483249671           
       1.844306             0.00871139103            0.000459961937           
       1.846947             0.00891801425            0.000469464268           
       1.849587             0.00846056617            0.000504931659           
       1.852228             0.00823227299            0.000450381182           
       1.854868             0.00835851454            0.000479395118           
       1.857508             0.00818968298            0.000469874698           
       1.860149              0.0089453758            0.000499997113           
       1.862789             0.00806816653            0.000458339206           
       1.865429              0.0075419562            0.000462571031           
       1.868070             0.00817179549            0.000475081227           
       1.870710             0.00814196571            0.000463280541           
       1.873351             0.00803111343             0.00046580405           
       1.875991             0.00721497332            0.000448707477           
       1.878631             0.00900851269            0.000491783674           
       1.881272              0.0073940883            0.000442557993           
       1.883912             0.00805332321            0.000480667556           
       1.886553              0.0085347301             0.00048929342           
       1.889193              0.0082662914            0.000480714406           
       1.891833              0.0088525936            0.000516642173           
       1.894474             0.00826790185            0.000494940979           
       1.897114              0.0085664954            0.000487515831           
       1.899754              0.0083058932            0.000482051716           
       1.902395             0.00835292099            0.000473963141           
       1.905035             0.00734169993            0.000470639513           
       1.907676             0.00822096706            0.000469390441           
       1.910316             0.00776739047            0.000468372281           
       1.912956             0.00834231528            0.000474718019           
       1.915597             0.00766364156            0.000457541471           
       1.918237              0.0087108546              0.0005037804           
       1.920878             0.00816954082            0.000485879092           
       1.923518              0.0090625392             0.00051196299           
       1.926158             0.00897790219            0.000502954333           
       1.928799             0.00886066136            0.000493875848           
       1.931439             0.00862846623            0.000500144842           
       1.934079             0.00774187369            0.000493875915           
       1.936720             0.00843196907             0.00047754945           
       1.939360             0.00781894925            0.000490609216           
       1.942001             0.00798077588            0.000454297984           
       1.944641             0.00884208322            0.000487603725           
       1.947281             0.00826215923            0.000466997789           
       1.949922             0.00810149755             0.00047765445           
       1.952562              0.0083914708            0.000501365503           
       1.955202             0.00841795021            0.000501543803           
       1.957843             0.00832806497            0.000485922075           
       1.960483             0.00847834256            0.000512594021           
       1.963124             0.00867548561            0.000507881689           
       1.965764             0.00790302466             0.00045712705           
       1.968404             0.00837593876            0.000466159037           
       1.971045             0.00825445304            0.000471814345           
       1.973685             0.00795522888            0.000485845194           
       1.976326             0.00801968296            0.000481105086           
       1.978966             0.00855322964            0.000501211574           
       1.981606             0.00748420291            0.000478622527           
       1.984247             0.00803103415            0.000492539872           
       1.986887             0.00828180439            0.000494179116           
       1.989527             0.00784961502            0.000475930603           
       1.992168             0.00763500796            0.000487021104           
       1.994808             0.00812997242            0.000500405334           
       1.997449             0.00764861682            0.000475397716           
       2.000089             0.00788584963            0.000480800186           
       2.002729             0.00754142885            0.000470465189           
       2.005370             0.00818106928              0.0004847385           
       2.008010             0.00787873175            0.000496458263           
       2.010650             0.00793508949            0.000501948434           
       2.013291             0.00792705584            0.000481347891           
       2.015931             0.00722131011            0.000456173685           
       2.018572             0.00698475733            0.000479862796           
       2.021212             0.00825000957            0.000512147254           
       2.023852             0.00791240388            0.000474701768           
       2.026493             0.00736027651             0.00047829529           
       2.029133             0.00703389537            0.000458160977           
       2.031774             0.00693048412            0.000477282133           
       2.034414             0.00738200509             0.00045324598           
       2.037054             0.00681076599            0.000446391087           
       2.039695             0.00737107959            0.000460882906           
       2.042335             0.00696055249            0.000465429823           
       2.044975             0.00722732733            0.000468513612           
       2.047616              0.0077929763            0.000485293944           
       2.050256             0.00772036902            0.000487599073           
       2.052897              0.0084231504             0.00051869813           
       2.055537             0.00772752972            0.000480156179           
       2.058177             0.00712311509            0.000451439395           
       2.060818             0.00790045303             0.00049805421           
       2.063458             0.00626517725            0.000462196249           
       2.066098             0.00785503753            0.000488202287           
       2.068739             0.00784601479            0.000495506068           
       2.071379             0.00698303809              0.0004796539           
       2.074020             0.00724764398            0.000478037207           
       2.076660             0.00685023188            0.000468503255           
       2.079300             0.00729298343            0.000495251049           
       2.081941             0.00799739508            0.000474853291           
       2.084581             0.00639655834            0.000448250325           
       2.087222             0.00739320147            0.000464753742           
       2.089862             0.00726575009            0.000501805688           
       2.092502             0.00739072334            0.000490594509           
       2.095143             0.00826549481            0.000535755459           
       2.097783             0.00673856226            0.000468345839           
       2.100423             0.00806728365            0.000493787298           
       2.103064             0.00731913497            0.000488034454           
       2.105704              0.0071776422            0.000480900235           
       2.108345              0.0074006253            0.000469138229           
       2.110985             0.00784220952            0.000515806147           
       2.113625             0.00863525552            0.000545981967           
       2.116266             0.00696456998            0.000497285928           
       2.118906             0.00817444951            0.000502085962           
       2.121546             0.00779546787            0.000480947547           
       2.124187             0.00688665174            0.000474506559           
       2.126827             0.00712016755            0.000487869274           
       2.129468             0.00682336194            0.000478812504           
       2.132108             0.00681409288            0.000465531611           
       2.134748             0.00838683117            0.000514465027           
       2.137389             0.00793531917            0.000522067707           
       2.140029             0.00766477238            0.000459350236           
       2.142670             0.00808055353            0.000504056749           
       2.145310             0.00762608272            0.000476611318           
       2.147950             0.00748770108            0.000486091715           
       2.150591             0.00780594329            0.000491298377           
       2.153231             0.00715698947            0.000484237683           
       2.155871             0.00764343901            0.000483442492           
       2.158512             0.00669575708            0.000472131745           
       2.161152             0.00774126204            0.000491746955           
       2.163793             0.00824513379            0.000505213661           
       2.166433             0.00826916211            0.000519556613           
       2.169073             0.00727494221            0.000476473523           
       2.171714             0.00741525884            0.000477450555           
       2.174354             0.00789168573             0.00051466903           
       2.176995             0.00852739497            0.000532745846           
       2.179635             0.00853557519            0.000563230578           
       2.182275             0.00726390604            0.000490568804           
       2.184916             0.00754610172            0.000482941888           
       2.187556             0.00721333321            0.000467440907           
       2.190196             0.00691912026            0.000478404053           
       2.192837              0.0072942494            0.000488528996           
       2.195477             0.00679742603            0.000449613024           
       2.198118             0.00773240063            0.000491826348           
       2.200758             0.00811213042            0.000516825277           
       2.203398             0.00747731636             0.00049936563           
       2.206039             0.00698788633            0.000456878222           
       2.208679             0.00725682544            0.000476422541           
       2.211319             0.00712115591            0.000474669314           
       2.213960              0.0073500038            0.000488697228           
       2.216600             0.00790123417            0.000524160986           
       2.219241             0.00645375181            0.000452750019           
       2.221881             0.00685434012            0.000467549063           
       2.224521             0.00767342059            0.000500758469           
       2.227162             0.00715327342            0.000473808004           
       2.229802             0.00741217673            0.000497404322           
       2.232443             0.00640440737            0.000455062933           
       2.235083             0.00781160238            0.000517400984           
       2.237723             0.00761676843            0.000490290242           
       2.240364             0.00656004663            0.000466219935           
       2.243004             0.00808889347            0.000513571913           
       2.245644             0.00776021929            0.000508064831           
       2.248285              0.0072862853            0.000482443757           
       2.250925             0.00757372596            0.000494855707           
       2.253566              0.0073914276            0.000522632915           
       2.256206             0.00696110207            0.000497049745           
       2.258846             0.00765031147            0.000495686663           
       2.261487             0.00698358525            0.000497081641           
       2.264127             0.00723162215            0.000488524614           
       2.266767             0.00663831566            0.000480525985           
       2.269408             0.00759123894             0.00051596361           
       2.272048             0.00658321731            0.000477619129           
       2.274689             0.00671975465            0.000488904865           
       2.277329             0.00728982502            0.000479464275           
       2.279969             0.00628846714            0.000474015344           
       2.282610             0.00763951531            0.000507928798           
       2.285250             0.00742187039            0.000479181694           
       2.287891             0.00782646463            0.000527572681           
       2.290531             0.00687229389             0.00050101363           
       2.293171             0.00735190292            0.000504774998           
       2.295812             0.00812504244            0.000528520136           
       2.298452             0.00752139269            0.000531764309           
       2.301092             0.00672821429            0.000467297129           
       2.303733             0.00798386784            0.000529576942           
       2.306373             0.00736187508            0.000516538636           
       2.309014              0.0077229635            0.000518734041           
       2.311654             0.00847459025            0.000567053868           
       2.314294             0.00783458296              0.0005023145           
       2.316935              0.0064577005            0.000457928085           
       2.319575             0.00691330805            0.000496439858           
       2.322215             0.00743289255            0.000536464131           
       2.324856             0.00747720237            0.000494691077           
       2.327496             0.00754601801             0.00052842696           
       2.330137             0.00756846129            0.000506416482           
       2.332777             0.00766858135            0.000525611819           
       2.335417             0.00743326401            0.000502037386           
       2.338058             0.00751403991            0.000519836008           
       2.340698             0.00669471376            0.000486820965           
       2.343339              0.0073258522            0.000520458085           
       2.345979              0.0079480727            0.000512879391           
       2.348619             0.00633279252            0.000474540976           
       2.351260             0.00698600235            0.000495510369           
       2.353900             0.00667859483            0.000482950915           
       2.356540             0.00769768548             0.00051775416           
       2.359181             0.00673246649            0.000477418169           
       2.361821             0.00667193978            0.000459095511           
       2.364462             0.00757563094            0.000511641924           
       2.367102             0.00751350392            0.000523633489           
       2.369742             0.00748511023            0.000550118003           
       2.372383             0.00741438339            0.000495771491           
       2.375023             0.00637697149            0.000483329737           
       2.377663             0.00740539003            0.000498006302           
       2.380304             0.00716400328            0.000497989734           
       2.382944             0.00671791261            0.000459314579           
       2.385585             0.00714336461            0.000505140677           
       2.388225             0.00750670109            0.000515394707           
       2.390865             0.00738348033             0.00050589654           
       2.393506             0.00691125507            0.000480217364           
       2.396146             0.00752624637            0.000541842136           
       2.398787             0.00702885398            0.000482567124           
       2.401427             0.00583322945             0.00042432738           
       2.404067             0.00651231113            0.000458347467           
       2.406708             0.00702664871            0.000470394256           
       2.409348             0.00683524543            0.000492102672           
       2.411988             0.00693855862            0.000485781899           
       2.414629             0.00720226036             0.00051034088           
       2.417269             0.00784012365            0.000538677133           
       2.419910             0.00695752263             0.00050862885           
       2.422550             0.00721834555            0.000495662073           
       2.425190             0.00750084201             0.00053260532           
       2.427831             0.00687343297            0.000506978023           
       2.430471              0.0069320506            0.000485049648           
       2.433112             0.00642470603            0.000454710121           
       2.435752             0.00617070494            0.000471616713           
       2.438392             0.00698785394             0.00048440986           
       2.441033             0.00765847192            0.000537446986           
       2.443673             0.00678596296            0.000506295492           
       2.446313             0.00710148262            0.000518388761           
       2.448954             0.00685224307             0.00048483968           
       2.451594             0.00637552896            0.000502854967           
       2.454235             0.00761491354            0.000515629974           
       2.456875             0.00743591074            0.000533154677           
       2.459515             0.00804746132            0.000569003921           
       2.462156             0.00723118668            0.000509244865           
       2.464796             0.00828182942            0.000537954367           
       2.467436             0.00746555794            0.000528181637           
       2.470077             0.00910600153             0.00055289314           
       2.472717             0.00699735443            0.000486767402           
       2.475358             0.00842927304            0.000539826974           
       2.477998             0.00680674097            0.000476919555           
       2.480638               0.007603454            0.000513015195           
       2.483279             0.00748614378            0.000532030323           
       2.485919             0.00775160709            0.000521744575           
       2.488560              0.0066953017            0.000483539501           
       2.491200             0.00766454853             0.00053274079           
       2.493840             0.00721149249            0.000546795156           
       2.496481             0.00663350161            0.000515846686           
       2.499121              0.0072842242            0.000525777266           
       2.501761             0.00720817283            0.000529955185           
       2.504402             0.00676883931            0.000506048134           
       2.507042             0.00656297096            0.000494601888           
       2.509683             0.00805401151             0.00053953903           
       2.512323             0.00719833853             0.00053570404           
       2.514963             0.00772664709            0.000548157587           
       2.517604             0.00716203176            0.000547621498           
       2.520244             0.00769805411            0.000532261398           
       2.522884             0.00736012867            0.000527890717           
       2.525525              0.0142910575            0.000743935131           
       2.528165              0.0109963104            0.000642396867           
       2.530806              0.0113105857            0.000662868081           
       2.533446              0.0139711597            0.000720992427           
       2.536086              0.0082602388            0.000549422165           
       2.538727             0.00615938714            0.000455150264           
       2.541367             0.00736945583            0.000502760132           
       2.544008             0.00684200957            0.000500302465           
       2.546648             0.00730783387            0.000525921939           
       2.549288             0.00786894626            0.000556859213           
       2.551929             0.00747277531            0.000534010247           
       2.554569               0.006687407            0.000486688962           
       2.557209             0.00724783126            0.000511324869           
       2.559850             0.00812907284            0.000543257541           
       2.562490             0.00693210655            0.000518502571           
       2.565131             0.00696463943             0.00053886685           
       2.567771             0.00732663716            0.000532879681           
       2.570411             0.00632717127            0.000489843105           
       2.573052             0.00777980312            0.000550011397           
       2.575692             0.00675658833            0.000509463706           
       2.578332             0.00588544569            0.000477453868           
       2.580973             0.00687376867            0.000511078064           
       2.583613             0.00730726544            0.000514400241           
       2.586254             0.00631869184            0.000477675892           
       2.588894             0.00665500605            0.000509073514           
       2.591534             0.00697313352             0.00053943528           
       2.594175             0.00698039327            0.000529531275           
       2.596815             0.00758966717            0.000555413234           
       2.599456             0.00688072295            0.000501493741           
       2.602096             0.00759876321            0.000531022037           
       2.604736             0.00684068526             0.00051578507           
       2.607377             0.00736495678            0.000521081284           
       2.610017             0.00673460877            0.000489563777           
       2.612657             0.00740995442            0.000546210349           
       2.615298             0.00733191244             0.00053045747           
       2.617938             0.00653957575            0.000535916046           
       2.620579             0.00695256567            0.000530470424           
       2.623219              0.0080307067            0.000569306301           
       2.625859             0.00675781602            0.000507766287           
       2.628500             0.00639501942            0.000490710799           
       2.631140             0.00721956444            0.000529420663           
       2.633780             0.00768932943            0.000545898521           
       2.636421             0.00642575072            0.000511305595           
       2.639061              0.0072129648            0.000509967871           
       2.641702             0.00682596356            0.000507583461           
       2.644342             0.00772593612            0.000542310011           
       2.646982             0.00757534004            0.000528970568           
       2.649623             0.00770579933            0.000559092843           
       2.652263             0.00650826241            0.000508659863           
       2.654904             0.00749181797            0.000546292509           
       2.657544             0.00685266159            0.000492112457           
       2.660184             0.00700693075             0.00052662784           
       2.662825             0.00716354303            0.000544834124           
       2.665465             0.00779161894            0.000549559421           
       2.668105             0.00727321968            0.000559655227           
       2.670746             0.00719747215            0.000514302856           
       2.673386              0.0080244155            0.000559651181           
       2.676027             0.00839923285            0.000563383178           
       2.678667              0.0102727375             0.00060794701           
       2.681307                0.01111126            0.000621243683           
       2.683948              0.0144757107            0.000728555291           
       2.686588              0.0121049493            0.000655181317           
       2.689229               0.010214807             0.00058811219           
       2.691869              0.0103162202            0.000624654005           
       2.694509             0.00856436764            0.000569462922           
       2.697150             0.00791447024            0.000538548658           
       2.699790             0.00703949894            0.000532468381           
       2.702430             0.00813787414            0.000547244888           
       2.705071             0.00698591779            0.000523925013           
       2.707711             0.00636572864            0.000485412026           
       2.710352              0.0064397414            0.000515871615           
       2.712992             0.00672839146             0.00053705631           
       2.715632             0.00756791302            0.000528454235           
       2.718273             0.00688892178             0.00052252594           
       2.720913             0.00680284463            0.000517773756           
       2.723553             0.00755333759            0.000549247865           
       2.726194             0.00637078815            0.000527289068           
       2.728834              0.0075457416            0.000574125531           
       2.731475              0.0075754204            0.000530908534           
       2.734115             0.00794054993            0.000560422053           
       2.736755              0.0077604394            0.000558589854           
       2.739396             0.00721603376            0.000535519898           
       2.742036             0.00595907438            0.000509308963           
       2.744677             0.00728496541            0.000546387559           
       2.747317             0.00596282209            0.000490800558           
       2.749957             0.00886986956            0.000602802297           
       2.752598             0.00785346339            0.000573369656           
       2.755238             0.00675384051            0.000541314382           
       2.757878             0.00784529681            0.000578315744           
       2.760519              0.0085847961            0.000598543621           
       2.763159             0.00840064592            0.000586172329           
       2.765800             0.00736000608            0.000522870153           
       2.768440             0.00881946149            0.000576585174           
       2.771080             0.00927241706            0.000596140971           
       2.773721             0.00819266012              0.0005748123           
       2.776361             0.00825336588            0.000584897415           
       2.779001              0.0081647995            0.000602461795           
       2.781642             0.00669595332            0.000541564974           
       2.784282             0.00748932173            0.000582168946           
       2.786923             0.00773288627             0.00059676829           
       2.789563             0.00609619756            0.000510321301           
       2.792203             0.00638751487            0.000499014718           
       2.794844             0.00710937622            0.000576988587           
       2.797484             0.00691107085             0.00053688823           
       2.800125             0.00706258076            0.000570692739           
       2.802765             0.00609628441            0.000521094989           
       2.805405             0.00697645479             0.00055933129           
       2.808046             0.00680817552            0.000562257755           
       2.810686             0.00657952298            0.000507899562           
       2.813326             0.00621288161            0.000512657536           
       2.815967             0.00737724714            0.000574518381           
       2.818607             0.00687801818            0.000529372743           
       2.821248             0.00693720513            0.000520608091           
       2.823888             0.00795390786            0.000578651231           
       2.826528             0.00618258029            0.000494070534           
       2.829169             0.00679444988            0.000542515329           
       2.831809             0.00703454221            0.000559526061           
       2.834449             0.00665745577            0.000547762783           
       2.837090              0.0063345489             0.00051606219           
       2.839730             0.00704417752            0.000541543978           
       2.842371             0.00600006774            0.000500521807           
       2.845011             0.00830304918            0.000593487758           
       2.847651             0.00710029112            0.000549495436           
       2.850292             0.00749181093            0.000569981634           
       2.852932             0.00724124564            0.000572581308           
       2.855573             0.00587986627            0.000500493693           
       2.858213             0.00690338915            0.000569489238           
       2.860853             0.00705508472            0.000535544641           
       2.863494             0.00726827706            0.000562797139           
       2.866134             0.00587770643            0.000526032761           
       2.868774             0.00662740646            0.000548963662           
       2.871415             0.00712123298            0.000577912403           
       2.874055              0.0069801574            0.000546913227           
       2.876696             0.00705007373            0.000564512602           
       2.879336             0.00659757291            0.000526331448           
       2.881976             0.00794624874            0.000595783544           
       2.884617               0.007666081            0.000576591919           
       2.887257             0.00788458016            0.000587769448           
       2.889897             0.00744409218            0.000559360923           
       2.892538             0.00777534341            0.000626267493           
       2.895178             0.00671689806            0.000525872651           
       2.897819              0.0064488983            0.000525629618           
       2.900459             0.00597225008            0.000495991691           
       2.903099             0.00648319415             0.00051148337           
       2.905740             0.00675331781            0.000535536241           
       2.908380             0.00742054482            0.000567747116           
       2.911021             0.00632525215             0.00053269682           
       2.913661              0.0065298323            0.000541080727           
       2.916301             0.00642738616            0.000537331389           
       2.918942             0.00731105887             0.00054816499           
       2.921582             0.00724253182            0.000570844268           
       2.924222             0.00735092003             0.00055716119           
       2.926863             0.00683020036            0.000559415032           
       2.929503             0.00815568518            0.000618532708           
       2.932144             0.00748571225            0.000568843204           
       2.934784             0.00676908289            0.000532060123           
       2.937424             0.00740141011            0.000562068326           
       2.940065             0.00777341051            0.000549468805           
       2.942705             0.00744216111             0.00053695955           
       2.945346             0.00690350958            0.000548840267           
       2.947986             0.00634998997            0.000536723142           
       2.950626             0.00641445717            0.000536403514           
       2.953267             0.00625411626            0.000521099061           
       2.955907             0.00706290663            0.000574459771           
       2.958547             0.00716506642            0.000546227543           
       2.961188             0.00652725898            0.000543913027           
       2.963828              0.0072786788            0.000561838184           
       2.966469             0.00722814639            0.000549244756           
       2.969109             0.00605448115             0.00051012716           
       2.971749             0.00772777116            0.000572729223           
       2.974390             0.00689507754            0.000531624805           
       2.977030             0.00745056878            0.000564974984           
       2.979670             0.00911980716            0.000607999076           
       2.982311             0.00813457498            0.000595149054           
       2.984951             0.00847399943            0.000577727741           
       2.987592             0.00746437704            0.000553080547           
       2.990232             0.00632872521            0.000529637296           
       2.992872             0.00835547352            0.000573232521           
       2.995513             0.00850451586            0.000565789756           
       2.998153              0.0125205597            0.000698036666           
       3.000794              0.0131400978            0.000692646031           
       3.003434              0.0105493037            0.000621554458           
       3.006074              0.0352655205             0.00112050123           
       3.008715               0.104337987              0.0018604878           
       3.011355               0.229292847              0.0026596433           
       3.013995               0.136297629             0.00205613816           
       3.016636              0.0817785237             0.00155960838           
       3.019276               0.146696237             0.00205328834           
       3.021917               0.510780178             0.00368407669           
       3.024557                1.39822009             0.00599279459           
       3.027197                1.12618173             0.00524356952           
       3.029838               0.583867914             0.00382910341           
       3.032478               0.262454749              0.0025698535           
       3.035118              0.0708518215             0.00135314533           
       3.037759              0.0800012085             0.00143600685           
       3.040399               0.106991173             0.00171301816           
       3.043040                 0.4324394             0.00348611385           
       3.045680               0.391123985              0.0031193228           
       3.048320                0.11177373             0.00170380596           
       3.050961               0.113787425             0.00174937586           
       3.053601              0.0905860415             0.00150330671           
       3.056242              0.0731436257             0.00143623416           
       3.058882              0.0639158447             0.00144019334           
       3.061522              0.0480921868              0.0012256757           
       3.064163              0.0624789808             0.00137943661           
       3.066803               0.126525793             0.00206663542           
       3.069443               0.113113548             0.00204441792           
       3.072084              0.0387528388             0.00116520961           
       3.074724              0.0443868329             0.00139265568           
       3.077365              0.0699457363             0.00180971791           
       3.080005               0.013156068            0.000789309434           
       3.082645              0.0128300475            0.000818849502           
       3.085286              0.0122873232            0.000807665599           
       3.087926              0.0108205699            0.000752086631           
       3.090566              0.0114842737            0.000759163125           
       3.093207              0.0118873198            0.000803730754           
       3.095847             0.00984325842            0.000701008407           
       3.098488             0.00798548197            0.000700114168           
       3.101128             0.00927214566            0.000759263396           
       3.103768             0.00867256814            0.000720489648           
       3.106409             0.00974990293            0.000813027879           
       3.109049             0.00753382898            0.000685845438           
       3.111690             0.00794735465            0.000692324122           
       3.114330             0.00857743883            0.000734545929           
       3.116970             0.00830410113            0.000728295889           
       3.119611              0.0108084109            0.000884425431           
       3.122251              0.0152971912             0.00110060573           
       3.124891              0.0336363253             0.00164723969           
       3.127532              0.0261941743             0.00142207656           
       3.130172                0.01487118             0.00109001778           
       3.132813              0.0104009862            0.000897425977           
       3.135453             0.00690432554            0.000725153293           
       3.138093             0.00625189772            0.000747684234           
       3.140734             0.00601075528             0.00067636236           
       3.143374             0.00638530522            0.000737231822           
       3.146014             0.00826530655            0.000902973813           
       3.148655             0.00825692102            0.000838971861           
       3.151295             0.00569949631            0.000742803138           
       3.153936             0.00631322832            0.000755170137           
       3.156576             0.00525213855            0.000679421542           
       3.159216             0.00502254678            0.000667728726           
       3.161857             0.00657824533            0.000761065453           
       3.164497             0.00571979653            0.000745660089           
       3.167138             0.00827115313            0.000926481082           
       3.169778             0.00621089285            0.000789602904           
       3.172418             0.00687022153            0.000822009792           
       3.175059             0.00617713689            0.000691010604           
       3.177699             0.00552490763            0.000692029743           
       3.180339             0.00615682971            0.000782711232           
       3.182980             0.00412417637            0.000662322437           
       3.185620             0.00584295672            0.000802863882           
       3.188261             0.00650538007            0.000862270901           
       3.190901             0.00560703064            0.000736248899           
       3.193541             0.00629208894            0.000819518323           
       3.196182             0.00695561482               0.000897959           
       3.198822             0.00462516775            0.000732483811           
       3.201463             0.00490824251            0.000741565991           
       3.204103             0.00630720944            0.000835516545           
       3.206743             0.00564561264            0.000790407771           
       3.209384             0.00618915452            0.000894132285           
       3.212024             0.00649731176            0.000854112351           
       3.214664             0.00565900307             0.00090642734           
       3.217305             0.00454948065            0.000772551822           
       3.219945             0.00512924728            0.000844302017           
       3.222586             0.00566828182            0.000845384215           
       3.225226             0.00558723609            0.000931093423           
       3.227866              0.0076428752            0.000995324176           
       3.230507             0.00640478887             0.00094450365           
       3.233147             0.00523608603             0.00086088948           
       3.235787             0.00634601259            0.000969905235           
       3.238428             0.00603883769             0.00102100506           
       3.241068              0.0051017641            0.000877497913           
       3.243709             0.00660303578             0.00103139459           
       3.246349             0.00494755842            0.000813859771           
       3.248989              0.0059601862             0.00105475606           
       3.251630             0.00537549409            0.000964595646           
       3.254270             0.00522777577            0.000850159381           
       3.256911             0.00510723137             0.00091686114           
       3.259551             0.00611029733             0.00107967236           
       3.262191             0.00474868772            0.000972220454           
       3.264832             0.00192146841            0.000646172686           
       3.267472             0.00764338079             0.00120900289           
       3.270112             0.00744653332             0.00131878506           
       3.272753             0.00647660174             0.00112575875           
       3.275393             0.00528086296             0.00103722424           
       3.278034             0.00548329239             0.00105751212           
       3.280674              0.0060058292             0.00120098187           
       3.283314             0.00516364994            0.000995951002           
       3.285955             0.00451408387            0.000960797079           
       3.288595             0.00608013496             0.00124056096           
       3.291235              0.0053240133              0.0011933575           
       3.293876             0.00632060599              0.0013189451           
       3.296516             0.00735546271             0.00136594666           
       3.299157             0.00569258189             0.00118656583           
       3.301797             0.00676323278              0.0014752989           
       3.304437             0.00383251237            0.000962173772           
       3.307078             0.00494370083             0.00120377858           
       3.309718             0.00529082609             0.00128539783           
       3.312359             0.00342777917             0.00103486903           
       3.314999             0.00543513703             0.00128302774           
       3.317639             0.00332808746            0.000960190352           
       3.320280             0.00655469865             0.00143269554           
       3.322920             0.00519222298             0.00129659092           
       3.325560             0.00417887776             0.00116399494           
       3.328201             0.00446386641              0.0010834745           
       3.330841             0.00390821287             0.00123385775           
       3.333482             0.00380461007             0.00115071656           
       3.336122             0.00310116401             0.00103938213           
       3.338762             0.00412295769             0.00138438706           
       3.341403             0.00423526527             0.00134073294           
       3.344043             0.00735815773             0.00169666093           
       3.346683              0.0061225989             0.00158004509           
       3.349324             0.00464131972             0.00154673439           
       3.351964             0.00227955601             0.00114626542           
       3.354605             0.00148140365             0.00105679554           
       3.357245             0.00544584899             0.00182786797           
       3.359885             0.00470746934             0.00136016423           
       3.362526              0.0030100123             0.00136012858           
       3.365166              0.0065431053             0.00189142279           
       3.367807             0.00353847589             0.00178010568           
       3.370447             0.00803232786             0.00222475404           
       3.373087             0.00488514175             0.00185535548           
       3.375728             0.00358340137             0.00179339314           
       3.378368             0.00984550828             0.00441180943           
       3.381008             0.00327827367             0.00189800964           
       3.383649             0.00630039753              0.0021107862           
       3.386289             0.00496175226             0.00221696251           
       3.388930             0.00250039781             0.00248936559           
       3.391570             0.00495373631             0.00247863773           
       3.394210              0.0039997628             0.00281860164           
       3.396851             0.00493900225             0.00350356348           
       3.399491             0.00496256647             0.00351289879           
       3.402131           -2.65922039e-05                         0           
       3.404772             0.00971734454             0.00983790304           
       3.407412                       nan                       nan           
       3.410053             0.00931958873             0.00964631163           
       3.412693                       nan                       nan           
       3.415333           -2.67215339e-05                         0           
