################################################################################
# EDF_DataBlockID                     0.Image.Psd
# EDF_BinarySize                      2105344
# EDF_HeaderSize                      2560
# ByteOrder                           LowByteFirst
# DataType                            FloatValue
# Dim_1                               512
# Dim_2                               1028
# Image                               0
# HeaderID                            EH:000000:000000:000000
# Size                                2105344
# Center_1                            304.9000
# Center_2                            588.7000
# Comment                             Xenocs_Cell_Window - 20251028_20perc_iodine_1.23mg
# DDummy                              0.6
# Date                                2025-10-30T06:50:39
# Delta                               21.910000
# Dummy                               -1.5
# ExposureTime                        360
# Gamma                               15.360000
# Intensity1                          8.52238e-10
# PSize_1                             7.5e-05
# PSize_2                             7.5e-05
# Pressure                            0.0324821
# SampleDistance                      0.115750
# SampleEnvKind                       large
# SampleEnvPN                         ElectroChemical cell
# SampleEnvSN                         1141
# Thickness                           0
# Wavelength                          1.541891e-10
# Wavelength                          1.54189e-10
# aux                                 0
# aux_dial                            0.002375
# beamx                               588.434
# beamx_dial                          588.434
# beamz                               657.808
# beamz_dial                          657.808
# det0x                               0
# det0x_dial                          6.36945
# det0xvd                             0
# det0xvd_dial                        0
# det0y                               450.002
# det0y_dial                          481.635
# det0z                               0
# det0z_dial                          1.23302
# det0zvd                             0
# det0zvd_dial                        0
# mag                                 1.818
# mag_dial                            1.818
# om                                  0.2499
# om_dial                             -0.610199
# phi                                 -0.0120535
# phi_dial                            0
# ry                                  0.599993
# ry_dial                             0.599993
# s1bot                               0.8
# s1bot_dial                          -1.66094
# s1hl                                0.8
# s1hl_dial                           -0.608437
# s1hr                                0.8
# s1hr_dial                           0.970938
# s1top                               0.8
# s1top_dial                          -0.461562
# s2bot                               0.45
# s2bot_dial                          1.36109
# s2hl                                0.45
# s2hl_dial                           -0.83375
# s2hr                                0.45
# s2hr_dial                           -0.118594
# s2top                               0.45
# s2top_dial                          1.44734
# w2theta                             32
# w2theta_dial                        32
# waxsch                              19.2605
# waxsch_dial                         -32.7355
# waxsh                               137.085
# waxsh_dial                          -43.5338
# waxsth                              26.0607
# waxsth_dial                         -19.4086
# waxsz                               67.0407
# waxsz_dial                          -23.7954
# wind                                65.9854
# wind_dial                           66.0041
# wpsi                                124
# wpsi_dial                           124
# wstod                               115
# wstod_dial                          115
# x                                   0
# x_dial                              1.00969
# z                                   0
# z_dial                              13.3172
# CountCutoff                         6807993
# DetectorModel                       Dectris EIGER2 Si 500K, S/N E-01-0554
# ThresholdSetting                    4023.88989258
# Saturation                          0
# FlatField                           Corrected
# BackgroundReductionExtra            0.02
# BackgroundCorrectionConstant        0.0026712
# Detector                            0
# Monitor                             0
# Pil_Roi0                            0
# SumForIntensity1                    3.06806e+08
# TransmittedFlux                     852238
# det                                 0
# mon                                 0
# pilai0                              3.06806e+08
# pilai1                              768966
# pilct0                              5.31687e+08
# pilct1                              768966
# pilroi0                             0
# pilroi1                             0
# sec                                 1
# title                               20251028_20perc_iodine_1.23mg_1_00368.edf
# usaxs0                              0
# Operation                           Azimuthal average I(q)
# Error_model                         ErrorModel.poisson
# Geometrical_correction              True
# Transmission_correction             True
# Thickness_correction                False
# Binning mode                        Uniform
# Binning factor                      1.0
# Psi                                 0.0
# Omega                               0.2499
# MaskInvalidPixels                   True
# DetectorEdge                        3
# MaskFiles                           ['WAXS_corrected.edf']
################################################################################
    q(A⁻¹)                Intensity(a.u.)            Sigma_I(a.u.)            
       0.693100             0.00829600782             0.00608230504           
       0.695741             0.00275596922             0.00286074088           
       0.698381           -2.38037187e-05                         0           
       0.701021             0.00884478205             0.00887462375           
       0.703662              0.0142006094             0.00649081656           
       0.706302             0.00691645496             0.00350707276           
       0.708942              0.0057349562             0.00412182081           
       0.711583             0.00442376897             0.00313477278           
       0.714223             0.00588668271             0.00417489043           
       0.716864             0.00624834164             0.00281425169           
       0.719504             0.00439636298             0.00254738847           
       0.722144             0.00881270185             0.00334002535           
       0.724785              0.0127074492              0.0031993063           
       0.727425             0.00731465152             0.00328370018           
       0.730065              0.0146599616             0.00328832178           
       0.732706             0.00720674203              0.0019360926           
       0.735346             0.00439352336             0.00197054891           
       0.737987             0.00969334381             0.00206830522           
       0.740627             0.00678667198             0.00258221698           
       0.743267             0.00564568132             0.00157748284           
       0.745908             0.00782251161             0.00201459752           
       0.748548             0.00613453403             0.00164444901           
       0.751189             0.00562573836             0.00212195375           
       0.753829             0.00746610083             0.00224707817           
       0.756469             0.00609664086             0.00163738161           
       0.759110             0.00635703378             0.00176198577           
       0.761750             0.00601167031             0.00151507237           
       0.764390             0.00667339838             0.00167076278           
       0.767031             0.00939685459             0.00171684734           
       0.769671             0.00487046855             0.00154184402           
       0.772312             0.00985975566             0.00167008854           
       0.774952             0.00257028162             0.00115148024           
       0.777592             0.00710872254             0.00139482302           
       0.780233             0.00956444054             0.00195198683           
       0.782873             0.00578078842             0.00145138712           
       0.785513              0.0083633975             0.00186631468           
       0.788154              0.0069190926             0.00142004447           
       0.790794             0.00782451052             0.00180536491           
       0.793435             0.00603737846             0.00142465867           
       0.796075             0.00653192254             0.00142749075           
       0.798715             0.00912915078             0.00199425516           
       0.801356             0.00575934791             0.00136328955           
       0.803996             0.00534078195             0.00133843285           
       0.806637             0.00826452696             0.00132499849           
       0.809277             0.00695442349              0.0013155831           
       0.811917             0.00829244555             0.00134297114           
       0.814558             0.00630085275             0.00121667585           
       0.817198             0.00743628111             0.00125573547           
       0.819838              0.0060230284             0.00114377324           
       0.822479             0.00808645375             0.00155625453           
       0.825119             0.00738114098             0.00126548513           
       0.827760             0.00737898438             0.00128170013           
       0.830400             0.00687401601             0.00116430995           
       0.833040             0.00755630012              0.0012789442           
       0.835681              0.0072657658             0.00142571522           
       0.838321             0.00966477198             0.00138013513           
       0.840961              0.0077102838             0.00134309576           
       0.843602             0.00626384095             0.00111014789           
       0.846242             0.00627299104             0.00111079273           
       0.848883             0.00823971876             0.00130280274           
       0.851523             0.00821350255             0.00128457108           
       0.854163             0.00635911309             0.00120201915           
       0.856804              0.0082669655             0.00123228769           
       0.859444             0.00898169232             0.00125851553           
       0.862085             0.00690313417             0.00114993868           
       0.864725             0.00582466211             0.00108101307           
       0.867365             0.00827453076             0.00119476685           
       0.870006             0.00561926823            0.000938229839           
       0.872646             0.00742242534             0.00113075374           
       0.875286             0.00667481511             0.00103161522           
       0.877927             0.00771305514              0.0010700835           
       0.880567             0.00671345233             0.00103429798           
       0.883208             0.00859004733             0.00115893656           
       0.885848             0.00739027329             0.00111613151           
       0.888488             0.00427746574            0.000796439242           
       0.891129             0.00686900313             0.00103630697           
       0.893769             0.00671123258            0.000980316809           
       0.896410             0.00732292064            0.000954743329           
       0.899050             0.00767837393             0.00107513854           
       0.901690             0.00694405855             0.00111373081           
       0.904331             0.00885129806              0.0011147635           
       0.906971             0.00635474557             0.00100485346           
       0.909611             0.00776833117             0.00101137364           
       0.912252             0.00657376992            0.000960972984           
       0.914892              0.0100435998             0.00129802806           
       0.917533             0.00551717583            0.000910096098           
       0.920173             0.00657693793            0.000921927288           
       0.922813             0.00724833318             0.00101563976           
       0.925454             0.00771797621             0.00094371915           
       0.928094             0.00878023125             0.00107459846           
       0.930734              0.0082254172             0.00111977522           
       0.933375             0.00746753194             0.00105645236           
       0.936015             0.00676207358            0.000913039255           
       0.938656             0.00881570625             0.00111836131           
       0.941296             0.00802905174            0.000967265905           
       0.943936             0.00874015451            0.000989668061           
       0.946577             0.00696441773            0.000877590031           
       0.949217             0.00756540548            0.000841123851           
       0.951858             0.00675407292            0.000831937316           
       0.954498             0.00891562656             0.00110636401           
       0.957138             0.00875014218             0.00103835568           
       0.959779             0.00779353883            0.000966033782           
       0.962419             0.00730320896            0.000928930862           
       0.965059              0.0069223923            0.000951179196           
       0.967700              0.0091565433             0.00112042844           
       0.970340             0.00793328591            0.000922868034           
       0.972981             0.00745389158            0.000815020818           
       0.975621             0.00623609293            0.000793057625           
       0.978261             0.00628099475            0.000756252216           
       0.980902             0.00817865433             0.00103249503           
       0.983542              0.0071555167            0.000855240126           
       0.986182             0.00789308123            0.000881883397           
       0.988823             0.00742696293            0.000830641286           
       0.991463             0.00718370316            0.000871573515           
       0.994104             0.00813148944            0.000904584237           
       0.996744             0.00692638154            0.000851557419           
       0.999384             0.00702550688            0.000767007406           
       1.002025             0.00856611321            0.000945296902           
       1.004665             0.00950122085            0.000909815723           
       1.007306             0.00783341638            0.000821884271           
       1.009946             0.00716657225            0.000801736034           
       1.012586             0.00791051435            0.000820371794           
       1.015227             0.00804776847            0.000888949222           
       1.017867             0.00844846963            0.000875352305           
       1.020507             0.00733822744            0.000790223607           
       1.023148             0.00643738523            0.000798622635           
       1.025788             0.00782257154            0.000807223182           
       1.028429             0.00887198576            0.000900640524           
       1.031069             0.00623666259            0.000710598939           
       1.033709             0.00829761062            0.000871282973           
       1.036350             0.00817977035             0.00077695471           
       1.038990             0.00826532163             0.00079535927           
       1.041630             0.00866440597            0.000849359172           
       1.044271              0.0084620504            0.000789408531           
       1.046911             0.00953820963            0.000881575123           
       1.049552              0.0101721712            0.000956491758           
       1.052192             0.00825750702             0.00078691885           
       1.054832             0.00839846256            0.000800826102           
       1.057473             0.00735310653            0.000738682254           
       1.060113              0.0084098912            0.000770447671           
       1.062754              0.0080170482            0.000768021624           
       1.065394             0.00739772956            0.000780003608           
       1.068034             0.00851630313            0.000761463146           
       1.070675             0.00764882084            0.000752759144           
       1.073315             0.00838504907            0.000799452099           
       1.075955             0.00746969535            0.000712343362           
       1.078596             0.00797684444            0.000782358314           
       1.081236             0.00709940465            0.000706755975           
       1.083877             0.00794784177            0.000741087784           
       1.086517             0.00880058521            0.000836207682           
       1.089157             0.00734756029            0.000792802397           
       1.091798              0.0103026529            0.000823051632           
       1.094438             0.00886788186            0.000761129432           
       1.097078             0.00871444153            0.000723659837           
       1.099719              0.0107335686            0.000868709707           
       1.102359              0.0075228294            0.000681093194           
       1.105000             0.00939531414            0.000851116649           
       1.107640             0.00759096271            0.000731498802           
       1.110280             0.00785258069            0.000678840847           
       1.112921             0.00846359273            0.000757060956           
       1.115561             0.00936843847             0.00075700882           
       1.118202             0.00846318706            0.000720183778           
       1.120842             0.00844868058            0.000756268831           
       1.123482              0.0080458697            0.000734796815           
       1.126123              0.0081987839            0.000711459142           
       1.128763             0.00894756257            0.000748333376           
       1.131403             0.00875824965            0.000713414162           
       1.134044             0.00831233518            0.000715172807           
       1.136684             0.00873930075             0.00078183598           
       1.139325             0.00902040593            0.000731718019           
       1.141965             0.00925283219            0.000745984276           
       1.144605             0.00840086102            0.000677760533           
       1.147246             0.00994197629            0.000754574072           
       1.149886              0.0089910743            0.000715034251           
       1.152527             0.00895167292            0.000723841012           
       1.155167             0.00926664323            0.000700490697           
       1.157807             0.00790038315            0.000693477198           
       1.160448             0.00859097661            0.000706176093           
       1.163088                0.00945129            0.000706510576           
       1.165728             0.00911840453            0.000712498752           
       1.168369             0.00917778542            0.000721418835           
       1.171009             0.00771960141            0.000642095116           
       1.173650              0.0075154667            0.000650171877           
       1.176290             0.00902182836            0.000696132248           
       1.178930              0.0100659193            0.000720671946           
       1.181571             0.00970251765            0.000721574289           
       1.184211              0.0101922861             0.00074218425           
       1.186851             0.00950032373            0.000700558403           
       1.189492             0.00999908568            0.000713877497           
       1.192132             0.00936226459            0.000683020389           
       1.194773             0.00815557961            0.000640271308           
       1.197413             0.00941812218             0.00065924747           
       1.200053             0.00893904378            0.000658580316           
       1.202694             0.00956038948              0.0006476724           
       1.205334              0.0100687216            0.000716304061           
       1.207975              0.0104826487            0.000697645067           
       1.210615             0.00915189086            0.000719112495           
       1.213255             0.00914396413            0.000643669754           
       1.215896             0.00994232016            0.000683342222           
       1.218536             0.00982940887            0.000653321127           
       1.221176             0.00892956494            0.000677001547           
       1.223817             0.00957153904            0.000657960871           
       1.226457             0.00954719641            0.000670362264           
       1.229098              0.0106808455            0.000709011513           
       1.231738             0.00955446236             0.00067388501           
       1.234378             0.00962278268            0.000635476162           
       1.237019              0.0105568188            0.000685897888           
       1.239659              0.0088821968            0.000623667926           
       1.242299              0.0100574733            0.000655216066           
       1.244940              0.0111382772            0.000670604884           
       1.247580             0.00934081741             0.00063289636           
       1.250221              0.0104460664            0.000665163625           
       1.252861              0.0102804618            0.000628199453           
       1.255501              0.0103704541            0.000685083507           
       1.258142              0.0101831359            0.000637918369           
       1.260782              0.0108792865            0.000673629762           
       1.263423             0.00970604975            0.000611384728           
       1.266063             0.00949283701            0.000619730774           
       1.268703              0.0111992996            0.000667546689           
       1.271344               0.012321501            0.000723923481           
       1.273984               0.010899104            0.000657574074           
       1.276624             0.00996026311             0.00061680543           
       1.279265              0.0110027756            0.000659047657           
       1.281905               0.011405095            0.000673966556           
       1.284546              0.0110461151            0.000641115507           
       1.287186              0.0104546891            0.000611931825           
       1.289826              0.0112199906            0.000668114041           
       1.292467              0.0104143812            0.000629503972           
       1.295107              0.0109591096            0.000639342681           
       1.297747              0.0101850059            0.000589794813           
       1.300388              0.0108240299            0.000662813878           
       1.303028              0.0108799707            0.000634394922           
       1.305669              0.0113929101            0.000664634572           
       1.308309              0.0104553443            0.000630429873           
       1.310949              0.0111786402            0.000651216554           
       1.313590              0.0110932473            0.000628446087           
       1.316230              0.0108186385            0.000662286523           
       1.318871              0.0105273954            0.000639838073           
       1.321511               0.010342685            0.000622444958           
       1.324151              0.0104627319             0.00060748689           
       1.326792              0.0112422072            0.000633602482           
       1.329432              0.0112815108             0.00063023006           
       1.332072              0.0107227407            0.000605267499           
       1.334713               0.011407789            0.000644342313           
       1.337353              0.0112281751            0.000613053166           
       1.339994              0.0115509623            0.000652520037           
       1.342634              0.0106601824            0.000601114567           
       1.345274              0.0123954366            0.000670821178           
       1.347915              0.0109375025            0.000612735778           
       1.350555              0.0115529089            0.000640767028           
       1.353195              0.0113099165            0.000637106442           
       1.355836              0.0111594044            0.000622984793           
       1.358476              0.0112758049            0.000608159989           
       1.361117              0.0119704021            0.000627471709           
       1.363757              0.0113094598            0.000628526029           
       1.366397              0.0106805961            0.000592317889           
       1.369038              0.0112356776            0.000613563789           
       1.371678               0.011835186            0.000624168558           
       1.374319              0.0108259677            0.000591823036           
       1.376959              0.0118571767            0.000613139845           
       1.379599              0.0115714258            0.000649134088           
       1.382240               0.011389554            0.000605275133           
       1.384880              0.0118568973            0.000654145162           
       1.387520              0.0112072236            0.000604001716           
       1.390161              0.0106778077            0.000559943198           
       1.392801              0.0123442727            0.000627282247           
       1.395442              0.0109763833            0.000599585611           
       1.398082              0.0114347201            0.000573088789           
       1.400722              0.0100737222            0.000563441253           
       1.403363              0.0108195659            0.000614654139           
       1.406003              0.0112467303             0.00058647912           
       1.408644              0.0107694877            0.000601198554           
       1.411284              0.0116745921            0.000592721323           
       1.413924              0.0112561494            0.000579844552           
       1.416565              0.0117407214            0.000589867856           
       1.419205              0.0119896068            0.000621814087           
       1.421845              0.0112639683            0.000602349716           
       1.424486               0.010174133             0.00055027396           
       1.427126             0.00975104068            0.000559616416           
       1.429767               0.012009324             0.00058432943           
       1.432407              0.0116353664            0.000601918151           
       1.435047              0.0110027892            0.000549719517           
       1.437688              0.0110445705            0.000558997124           
       1.440328              0.0120577041            0.000596112521           
       1.442968              0.0121875396            0.000612741308           
       1.445609              0.0104821221            0.000550229037           
       1.448249              0.0101657511            0.000555581503           
       1.450890              0.0106384084            0.000564641062           
       1.453530              0.0105827071            0.000589179601           
       1.456170              0.0115534695            0.000597463751           
       1.458811              0.0106236133            0.000547835125           
       1.461451              0.0110073013            0.000559103157           
       1.464092              0.0115005709            0.000575229719           
       1.466732              0.0104407017            0.000543373344           
       1.469372               0.011543767            0.000557985119           
       1.472013              0.0109744759            0.000586771392           
       1.474653              0.0114145154            0.000589188173           
       1.477293              0.0108709401            0.000587106899           
       1.479934              0.0111795423            0.000568118733           
       1.482574              0.0108223819            0.000540716176           
       1.485215              0.0100526256            0.000530838136           
       1.487855              0.0101863688            0.000541406744           
       1.490495              0.0108512519             0.00055673877           
       1.493136              0.0120395877            0.000578393433           
       1.495776              0.0114156757            0.000560642936           
       1.498416              0.0106533714            0.000559320157           
       1.501057              0.0106393214            0.000546632754           
       1.503697              0.0108128247            0.000538760683           
       1.506338              0.0109076407            0.000551005797           
       1.508978              0.0106687761            0.000539580113           
       1.511618              0.0110980645            0.000586097507           
       1.514259              0.0111500563            0.000567173576           
       1.516899              0.0108692964            0.000545241994           
       1.519540              0.0106412589            0.000548191809           
       1.522180             0.00959518508            0.000525123085           
       1.524820              0.0106255845            0.000549499614           
       1.527461              0.0104440844            0.000547480617           
       1.530101              0.0103896558            0.000540591068           
       1.532741              0.0104253981             0.00053837749           
       1.535382              0.0107503574             0.00055550497           
       1.538022              0.0107137599            0.000522423568           
       1.540663              0.0101839727            0.000547829947           
       1.543303              0.0107877494             0.00052353066           
       1.545943             0.00979705114            0.000528062041           
       1.548584              0.0107071933            0.000561955332           
       1.551224              0.0113988867            0.000536100855           
       1.553864             0.00990467247            0.000528058026           
       1.556505              0.0103416564            0.000521249206           
       1.559145              0.0110647728             0.00054576961           
       1.561786              0.0112118485            0.000549807999           
       1.564426              0.0110132842            0.000527968453           
       1.567066              0.0100641057            0.000528833373           
       1.569707              0.0100618931            0.000519276772           
       1.572347              0.0107175923            0.000553668753           
       1.574988              0.0103132671            0.000516963623           
       1.577628              0.0109556769            0.000555601088           
       1.580268              0.0101432385            0.000517973855           
       1.582909              0.0102480971            0.000551862277           
       1.585549             0.00974380385            0.000522490373           
       1.588189              0.0109914484            0.000542822548           
       1.590830              0.0101269294            0.000520383931           
       1.593470             0.00912632338            0.000513567421           
       1.596111              0.0103473049            0.000533889269           
       1.598751             0.00998209034            0.000508109214           
       1.601391             0.00999855012            0.000519747489           
       1.604032             0.00967610276            0.000521986803           
       1.606672             0.00938732184             0.00049953438           
       1.609312              0.0105263499            0.000552185852           
       1.611953               0.010540107            0.000540701258           
       1.614593             0.00955950147            0.000505110548           
       1.617234                0.01058973            0.000550971223           
       1.619874              0.0094480846            0.000518369437           
       1.622514             0.00883526804            0.000494438374           
       1.625155             0.00915722385            0.000506340032           
       1.627795             0.00853964976            0.000476987342           
       1.630436             0.00951235308              0.0005007917           
       1.633076             0.00889021414            0.000490487755           
       1.635716             0.00954790808            0.000500398272           
       1.638357             0.00886175091            0.000483353294           
       1.640997             0.00954375961            0.000516802968           
       1.643637             0.00881709862            0.000483382862           
       1.646278             0.00902723933            0.000504477112           
       1.648918             0.00815813129             0.00048088635           
       1.651559             0.00872256002            0.000501102814           
       1.654199              0.0100605425            0.000523412866           
       1.656839             0.00852101999            0.000481871295           
       1.659480             0.00868357101            0.000504712734           
       1.662120              0.0101402938            0.000513683122           
       1.664761             0.00884421473            0.000498318844           
       1.667401             0.00877053016            0.000474297905           
       1.670041              0.0091703806            0.000492384073           
       1.672682             0.00981029899            0.000507180718           
       1.675322             0.00990856489            0.000506436794           
       1.677962             0.00811963333            0.000453388641           
       1.680603              0.0091807677             0.00048358888           
       1.683243               0.008704433            0.000491271848           
       1.685884             0.00952724005            0.000517762406           
       1.688524             0.00849329167            0.000479410794           
       1.691164             0.00814516197            0.000469589322           
       1.693805             0.00966736195            0.000517210368           
       1.696445             0.00875553915            0.000495070012           
       1.699085             0.00863901621            0.000475286555           
       1.701726             0.00908189207             0.00046944485           
       1.704366             0.00832262072            0.000473423379           
       1.707007             0.00949036316            0.000494277273           
       1.709647             0.00908023748            0.000488939211           
       1.712287             0.00873357572            0.000483688941           
       1.714928             0.00950560278            0.000508683257           
       1.717568             0.00934131662            0.000475022729           
       1.720209             0.00861297636            0.000477762705           
       1.722849             0.00864079295            0.000476073388           
       1.725489             0.00801755222            0.000458968125           
       1.728130             0.00949526462            0.000530803678           
       1.730770             0.00831441479            0.000471733759           
       1.733410             0.00826695921            0.000462991587           
       1.736051             0.00893322305            0.000484637155           
       1.738691             0.00837021797            0.000459607211           
       1.741332             0.00837361811            0.000473142497           
       1.743972             0.00870473634            0.000498166682           
       1.746612             0.00956937766            0.000501562734           
       1.749253             0.00889520407            0.000493122024           
       1.751893             0.00865702923            0.000482904583           
       1.754533             0.00962648618             0.00050875069           
       1.757174             0.00822758176            0.000465930468           
       1.759814             0.00822554269            0.000458811001           
       1.762455             0.00978570037            0.000509623837           
       1.765095             0.00839288261            0.000451491444           
       1.767735             0.00841928064            0.000466151313           
       1.770376             0.00860724595            0.000472568683           
       1.773016             0.00974673818            0.000499509409           
       1.775657             0.00753217347            0.000432792656           
       1.778297             0.00871902084            0.000461633946           
       1.780937             0.00939590505            0.000505814502           
       1.783578             0.00958349597            0.000498065749           
       1.786218             0.00800167942            0.000474955864           
       1.788858             0.00864641901            0.000468914977           
       1.791499              0.0078838376            0.000442730737           
       1.794139             0.00874974469             0.00046262665           
       1.796780             0.00886484413            0.000463414643           
       1.799420             0.00859683455             0.00045382852           
       1.802060             0.00893129495            0.000466308736           
       1.804701             0.00874656347            0.000442839034           
       1.807341             0.00993001653            0.000495809658           
       1.809981               0.009524304            0.000487194266           
       1.812622             0.00933280619            0.000473589125           
       1.815262             0.00880777656            0.000469848168           
       1.817903             0.00839184457             0.00045182481           
       1.820543             0.00844600791            0.000460343701           
       1.823183             0.00884324048            0.000470785808           
       1.825824             0.00964002415             0.00046959507           
       1.828464             0.00914843886            0.000476927139           
       1.831105             0.00873356252            0.000453103932           
       1.833745             0.00879930681            0.000464519447           
       1.836385             0.00914737706            0.000487134053           
       1.839026             0.00899399153            0.000481506477           
       1.841666             0.00779586651             0.00044669941           
       1.844306             0.00880768877             0.00046184852           
       1.846947             0.00913225402            0.000474403506           
       1.849587             0.00786519585            0.000486158738           
       1.852228             0.00866806873            0.000461500275           
       1.854868             0.00750772904            0.000453705232           
       1.857508             0.00762851824            0.000452854873           
       1.860149             0.00803528377            0.000473215811           
       1.862789             0.00744664965            0.000439714188           
       1.865429             0.00794173604            0.000474006819           
       1.868070              0.0081221563            0.000472971784           
       1.870710             0.00766770054            0.000448954607           
       1.873351             0.00764334469            0.000453782287           
       1.875991             0.00823392143            0.000478673888           
       1.878631             0.00837121928            0.000473404471           
       1.881272             0.00849507439            0.000473698383           
       1.883912             0.00797387145            0.000477619771           
       1.886553              0.0072700208            0.000450954519           
       1.889193             0.00785848839            0.000468049436           
       1.891833             0.00829684072            0.000499460795           
       1.894474             0.00830246336            0.000495278729           
       1.897114             0.00862550168            0.000488505827           
       1.899754             0.00876268191            0.000494435246           
       1.902395             0.00938251476            0.000501620697           
       1.905035             0.00832056086            0.000500330305           
       1.907676             0.00827827838            0.000470363092           
       1.910316             0.00810820806            0.000477866399           
       1.912956             0.00869518489            0.000483974259           
       1.915597              0.0081603342            0.000471473493           
       1.918237             0.00891270459            0.000508869097           
       1.920878             0.00865637084            0.000499445093           
       1.923518             0.00737721809            0.000461264855           
       1.926158             0.00807719563            0.000476389144           
       1.928799             0.00773746421            0.000460865801           
       1.931439             0.00851940239            0.000496276825           
       1.934079             0.00768255791            0.000491290272           
       1.936720             0.00825588309            0.000471874002           
       1.939360             0.00880114993            0.000519782497           
       1.942001             0.00778336535            0.000448014837           
       1.944641             0.00760767936            0.000451654407           
       1.947281             0.00770710818            0.000450406042           
       1.949922             0.00756888162            0.000461038792           
       1.952562             0.00794453618            0.000487147093           
       1.955202             0.00788444987            0.000484709829           
       1.957843             0.00864810816            0.000494476401           
       1.960483             0.00817494617            0.000502632937           
       1.963124             0.00737688869            0.000467673444           
       1.965764             0.00753122599            0.000445618824           
       1.968404              0.0069734533            0.000424748395           
       1.971045             0.00782388204            0.000458699824           
       1.973685             0.00812061308            0.000490180936           
       1.976326             0.00800105656             0.00047987205           
       1.978966             0.00799493452            0.000483898101           
       1.981606             0.00841930314            0.000506931022           
       1.984247             0.00716203838            0.000464477215           
       1.986887             0.00746106094            0.000468395414           
       1.989527             0.00846092354            0.000493422302           
       1.992168             0.00699578364            0.000465534268           
       1.994808             0.00755239434            0.000481626262           
       1.997449             0.00752923204            0.000471011397           
       2.000089             0.00836087885            0.000494375321           
       2.002729             0.00821391786            0.000490304964           
       2.005370             0.00749691063            0.000463376583           
       2.008010             0.00833096396            0.000509791571           
       2.010650             0.00775505494            0.000495525565           
       2.013291              0.0073130361            0.000461681433           
       2.015931             0.00858160157            0.000496588709           
       2.018572             0.00836831466            0.000524506478           
       2.021212             0.00783336911             0.00049834758           
       2.023852             0.00720278548            0.000452279916           
       2.026493             0.00770807691            0.000488778951           
       2.029133              0.0082716806            0.000496143674           
       2.031774             0.00714470233            0.000483922591           
       2.034414             0.00727203061            0.000449226199           
       2.037054             0.00722946058            0.000459262429           
       2.039695             0.00752625805            0.000465055772           
       2.042335             0.00735285312            0.000477695041           
       2.044975             0.00681639342            0.000454361068           
       2.047616              0.0082534743            0.000498726026           
       2.050256             0.00683706611            0.000458214858           
       2.052897             0.00785115765            0.000500074478           
       2.055537             0.00752343479            0.000473108441           
       2.058177             0.00741890048            0.000460070814           
       2.060818             0.00672004954             0.00045869847           
       2.063458             0.00783392269            0.000516107075           
       2.066098              0.0074947854            0.000476206933           
       2.068739              0.0082537977            0.000507506679           
       2.071379             0.00639641963             0.00045842119           
       2.074020             0.00774886191            0.000493597182           
       2.076660             0.00740240029             0.00048633631           
       2.079300             0.00737601863            0.000497363865           
       2.081941             0.00862132485            0.000492337162           
       2.084581             0.00757888231            0.000487237211           
       2.087222             0.00754888476             0.00046896287           
       2.089862              0.0079478557            0.000524095915           
       2.092502             0.00812462341            0.000513654701           
       2.095143             0.00807836336            0.000528913076           
       2.097783             0.00821404504            0.000516359319           
       2.100423               0.008075892            0.000493357731           
       2.103064              0.0078192588            0.000503725382           
       2.105704             0.00709498037            0.000477452446           
       2.108345              0.0068486556            0.000450671107           
       2.110985             0.00754533427            0.000505239122           
       2.113625             0.00817000068            0.000530325103           
       2.116266             0.00854320712            0.000549996494           
       2.118906             0.00818524455            0.000501712692           
       2.121546             0.00742353002            0.000468675544           
       2.124187             0.00739126025            0.000490894134           
       2.126827             0.00776059434            0.000508623343           
       2.129468             0.00707403737            0.000486844638           
       2.132108             0.00736308311            0.000483242853           
       2.134748             0.00824477737            0.000509374042           
       2.137389             0.00763821637            0.000511482813           
       2.140029              0.0069230876            0.000435947973           
       2.142670             0.00746257141            0.000483719465           
       2.145310              0.0073314698            0.000466658903           
       2.147950             0.00770404746            0.000492372604           
       2.150591             0.00772708394            0.000488124813           
       2.153231             0.00771462067            0.000502043234           
       2.155871             0.00793032629            0.000491740957           
       2.158512             0.00797068367            0.000514400736           
       2.161152              0.0061082436             0.00043619874           
       2.163793             0.00785706552            0.000492489365           
       2.166433             0.00699359241            0.000477136587           
       2.169073              0.0064734878            0.000448831782           
       2.171714             0.00701416173            0.000463706911           
       2.174354             0.00739807846            0.000497614523           
       2.176995             0.00747417886             0.00049806275           
       2.179635             0.00787402409            0.000540205044           
       2.182275             0.00771965482            0.000505014904           
       2.184916             0.00684900711             0.00045944951           
       2.187556              0.0073422403            0.000470937693           
       2.190196             0.00719084492            0.000487023378           
       2.192837             0.00754331706            0.000496102778           
       2.195477             0.00655409656            0.000440872989           
       2.198118             0.00755407189            0.000485440057           
       2.200758             0.00832055326            0.000522688353           
       2.203398             0.00768059871            0.000505398261           
       2.206039             0.00744144204            0.000470810922           
       2.208679             0.00680200808            0.000460604282           
       2.211319             0.00835269871            0.000513357314           
       2.213960             0.00694974148            0.000474537846           
       2.216600             0.00666113045            0.000480597638           
       2.219241             0.00754585573            0.000488874104           
       2.221881             0.00693756574            0.000469719249           
       2.224521             0.00703594708            0.000478834596           
       2.227162             0.00711110584            0.000471746827           
       2.229802             0.00759162018            0.000502683168           
       2.232443             0.00793613802            0.000505856145           
       2.235083              0.0074806776            0.000505612836           
       2.237723             0.00660632909            0.000455972249           
       2.240364             0.00699703903            0.000480822698           
       2.243004             0.00745255371            0.000492265841           
       2.245644             0.00761141362            0.000502464327           
       2.248285             0.00634442327            0.000449552189           
       2.250925             0.00729392745            0.000484947747           
       2.253566             0.00792211425            0.000540310717           
       2.256206             0.00687215904             0.00049317141           
       2.258846              0.0079450385            0.000504436048           
       2.261487             0.00796525317            0.000530125545           
       2.264127             0.00817754798            0.000518764889           
       2.266767             0.00760271284            0.000513526261           
       2.269408             0.00770958076              0.0005192405           
       2.272048             0.00815898236            0.000530971303           
       2.274689              0.0074437034             0.00051384557           
       2.277329             0.00681320929            0.000462875296           
       2.279969             0.00770410182            0.000523927803           
       2.282610              0.0072782252            0.000495077416           
       2.285250             0.00681936746            0.000458676002           
       2.287891             0.00726612229            0.000507622979           
       2.290531             0.00674563253            0.000495678926           
       2.293171             0.00705064452            0.000493631425           
       2.295812             0.00744629296            0.000505253366           
       2.298452             0.00746127118            0.000528891883           
       2.301092             0.00699001891            0.000475633918           
       2.303733             0.00742234146            0.000509897989           
       2.306373             0.00713544876            0.000507819849           
       2.309014             0.00753224293            0.000511570336           
       2.311654             0.00848866129            0.000566728432           
       2.314294              0.0076191624             0.00049466573           
       2.316935             0.00706662416            0.000478359897           
       2.319575             0.00683453812            0.000492911227           
       2.322215             0.00798926928            0.000555399812           
       2.324856             0.00719222303            0.000484491898           
       2.327496             0.00596675038             0.00046922962           
       2.330137               0.007671264            0.000509129118           
       2.332777             0.00732756094            0.000513071349           
       2.335417             0.00642815123            0.000466208041           
       2.338058              0.0065636378            0.000485168226           
       2.340698             0.00624695726            0.000469599872           
       2.343339             0.00659329825            0.000493058535           
       2.345979             0.00673160699            0.000471339835           
       2.348619             0.00737926987            0.000511532489           
       2.351260             0.00667963697            0.000483843877           
       2.353900              0.0069728788            0.000492784387           
       2.356540             0.00815843959            0.000532276758           
       2.359181             0.00692185322            0.000483407597           
       2.361821             0.00737198001            0.000481902854           
       2.364462             0.00691229675            0.000488043286           
       2.367102             0.00713455114             0.00050954192           
       2.369742             0.00734522859            0.000544189117           
       2.372383             0.00721805317            0.000488477434           
       2.375023             0.00795792011            0.000539170972           
       2.377663             0.00751631608            0.000501018571           
       2.380304             0.00690844619            0.000488340932           
       2.382944             0.00811795751            0.000504204687           
       2.385585             0.00769712156            0.000523619175           
       2.388225             0.00720943185            0.000504378249           
       2.390865             0.00687894185            0.000487621003           
       2.393506              0.0061514695            0.000452417371           
       2.396146              0.0078555559            0.000552792901           
       2.398787             0.00743471769            0.000495607818           
       2.401427             0.00725841827            0.000472669912           
       2.404067             0.00747636218            0.000490414009           
       2.406708             0.00697705421            0.000468073845           
       2.409348             0.00741566092            0.000511851564           
       2.411988             0.00777336718            0.000513454217           
       2.414629             0.00757612504            0.000522684899           
       2.417269             0.00760400058            0.000529759302           
       2.419910             0.00681785081            0.000502791422           
       2.422550             0.00732959087            0.000498766364           
       2.425190             0.00754970268            0.000533587752           
       2.427831             0.00764339553            0.000533870453           
       2.430471             0.00779133077            0.000513513173           
       2.433112             0.00677658689            0.000466341358           
       2.435752             0.00739903409            0.000515703106           
       2.438392             0.00706367857            0.000486347812           
       2.441033             0.00711509307            0.000517303359           
       2.443673             0.00734873361            0.000526132351           
       2.446313             0.00652563368            0.000496229804           
       2.448954             0.00669236396            0.000478478016           
       2.451594             0.00834818514            0.000574607256           
       2.454235             0.00856815714            0.000546185058           
       2.456875             0.00669499475            0.000505186453           
       2.459515             0.00705243999            0.000531919542           
       2.462156             0.00790031992            0.000531538404           
       2.464796             0.00794831486            0.000526272001           
       2.467436             0.00807945617            0.000548698362           
       2.470077             0.00859639219            0.000536445848           
       2.472717             0.00783954382            0.000514505928           
       2.475358             0.00772305283            0.000515993772           
       2.477998             0.00772299126            0.000507292832           
       2.480638              0.0073331318            0.000503106524           
       2.483279             0.00746795682            0.000530638356           
       2.485919             0.00717882788            0.000501394163           
       2.488560             0.00695974941            0.000492304857           
       2.491200             0.00775718965            0.000535199011           
       2.493840             0.00686349215            0.000532690667           
       2.496481             0.00675829622            0.000519946039           
       2.499121             0.00737819612            0.000528415666           
       2.501761              0.0074985798            0.000539767207           
       2.504402             0.00697052186            0.000512811563           
       2.507042             0.00721801324            0.000517970234           
       2.509683             0.00716036379            0.000508012881           
       2.512323             0.00626617922             0.00049911501           
       2.514963             0.00767276371            0.000545476744           
       2.517604             0.00756615526             0.00056207003           
       2.520244             0.00730756886             0.00051785883           
       2.522884             0.00788158449            0.000545504737           
       2.525525              0.0115239152            0.000667103698           
       2.528165              0.0100895754            0.000614478654           
       2.530806              0.0122611555            0.000689192746           
       2.533446              0.0117806192            0.000661133206           
       2.536086             0.00746772471            0.000521668316           
       2.538727             0.00751233788             0.00050195414           
       2.541367             0.00782240767            0.000517253909           
       2.544008             0.00721993721            0.000513213357           
       2.546648             0.00755476392            0.000533983503           
       2.549288             0.00710113814             0.00052825247           
       2.551929             0.00718732293            0.000522977066           
       2.554569             0.00686015521            0.000492243541           
       2.557209             0.00798484494            0.000535940477           
       2.559850             0.00690068415            0.000499829365           
       2.562490             0.00660004934            0.000505222085           
       2.565131             0.00815661627            0.000582341312           
       2.567771             0.00620719218            0.000489795568           
       2.570411             0.00707580009            0.000517285635           
       2.573052             0.00732297741            0.000532870489           
       2.575692             0.00743056445            0.000533520192           
       2.578332             0.00838662218            0.000569148655           
       2.580973             0.00815995543            0.000556063148           
       2.583613             0.00696628203            0.000501550519           
       2.586254             0.00622698855            0.000473531862           
       2.588894             0.00683411305            0.000515154848           
       2.591534             0.00782887993            0.000570775875           
       2.594175             0.00717314923            0.000536039804           
       2.596815             0.00757897303             0.00055424333           
       2.599456             0.00645240415            0.000484953054           
       2.602096             0.00745818145            0.000525349106           
       2.604736             0.00763950529            0.000544304615           
       2.607377             0.00634894011            0.000483127129           
       2.610017              0.0069084202            0.000495145572           
       2.612657             0.00702282175            0.000531004762           
       2.615298             0.00623185037            0.000488360894           
       2.617938             0.00696675492            0.000552366938           
       2.620579             0.00704489785            0.000533232256           
       2.623219             0.00716811548             0.00053710852           
       2.625859             0.00733294732            0.000528190273           
       2.628500             0.00757781335            0.000533417267           
       2.631140             0.00735531538            0.000533625378           
       2.633780             0.00769572555            0.000545359529           
       2.636421             0.00681527395            0.000525836469           
       2.639061             0.00672039705            0.000491556917           
       2.641702             0.00726010116            0.000522741828           
       2.644342             0.00713980784            0.000520601917           
       2.646982             0.00709531705            0.000511218759           
       2.649623             0.00771766522            0.000558738361           
       2.652263             0.00820313551            0.000570263167           
       2.654904             0.00774760939            0.000554761012           
       2.657544             0.00731903459            0.000507869407           
       2.660184             0.00742183007             0.00054123496           
       2.662825             0.00705888001            0.000540080752           
       2.665465             0.00711271198            0.000524335005           
       2.668105             0.00716896942            0.000554850538           
       2.670746             0.00661934087            0.000492523264           
       2.673386             0.00851407807            0.000575665193           
       2.676027             0.00754194082            0.000533109058           
       2.678667              0.0096035711            0.000586988301           
       2.681307             0.00990141161            0.000585624618           
       2.683948               0.015240432            0.000746503149           
       2.686588              0.0135242961            0.000691556693           
       2.689229              0.0100722409             0.00058317458           
       2.691869              0.0108477507            0.000639645741           
       2.694509              0.0092203319            0.000590040082           
       2.697150             0.00781221133            0.000534307722           
       2.699790             0.00833829672            0.000578698104           
       2.702430             0.00646113192            0.000486934976           
       2.705071             0.00645301318             0.00050283918           
       2.707711               0.007019999            0.000509032408           
       2.710352             0.00596974139            0.000495993076           
       2.712992             0.00816639352             0.00059083986           
       2.715632             0.00699288964            0.000507268729           
       2.718273             0.00726304315            0.000535774423           
       2.720913             0.00647070889             0.00050426767           
       2.723553             0.00756783959            0.000549003768           
       2.726194             0.00748000582            0.000570549843           
       2.728834             0.00792671314             0.00058761504           
       2.731475             0.00696322296             0.00050829042           
       2.734115             0.00739912762            0.000540219955           
       2.736755              0.0091826984            0.000606771934           
       2.739396             0.00647855781            0.000506705875           
       2.742036             0.00611185296            0.000515073019           
       2.744677             0.00734074734            0.000547706165           
       2.747317             0.00805843844            0.000569763999           
       2.749957             0.00722890762            0.000543429306           
       2.752598             0.00776573098            0.000569358359           
       2.755238             0.00704943671            0.000552257737           
       2.757878             0.00747392371            0.000563670223           
       2.760519             0.00815248202            0.000582460093           
       2.763159             0.00807163973            0.000573773247           
       2.765800             0.00785294148             0.00053933845           
       2.768440             0.00830594586            0.000558762718           
       2.771080             0.00843781061            0.000567881623           
       2.773721             0.00662688071            0.000516248255           
       2.776361             0.00648514254            0.000517743139           
       2.779001             0.00809579452            0.000599069106           
       2.781642             0.00768286264            0.000579290399           
       2.784282             0.00716335438            0.000568560189           
       2.786923             0.00703496357            0.000568402906           
       2.789563             0.00739941931            0.000561440109           
       2.792203             0.00605886189            0.000485325774           
       2.794844             0.00698725562            0.000571209243           
       2.797484             0.00676757452            0.000530540046           
       2.800125             0.00698434104             0.00056672685           
       2.802765             0.00705805363             0.00055990868           
       2.805405             0.00635117814            0.000532928943           
       2.808046              0.0069384138            0.000566814064           
       2.810686             0.00683878462            0.000517083327           
       2.813326             0.00721815043            0.000551803191           
       2.815967             0.00704745442            0.000560742322           
       2.818607             0.00665642441            0.000520044916           
       2.821248             0.00669612926            0.000510764843           
       2.823888             0.00822251816            0.000587515678           
       2.826528             0.00675371698            0.000515662959           
       2.829169             0.00720600775            0.000557920941           
       2.831809             0.00710831115            0.000561663304           
       2.834449              0.0061914544            0.000527503265           
       2.837090             0.00573498566            0.000490343925           
       2.839730             0.00685483058            0.000533466785           
       2.842371             0.00678293234            0.000531427601           
       2.845011             0.00672159623            0.000533236177           
       2.847651             0.00725964695            0.000554848222           
       2.850292             0.00747248465            0.000568447564           
       2.852932              0.0067652861            0.000552667653           
       2.855573             0.00688595096            0.000540863014           
       2.858213             0.00664523506            0.000557956002           
       2.860853             0.00704560396            0.000534434039           
       2.863494             0.00676038233            0.000542016128           
       2.866134             0.00717166077            0.000580241988           
       2.868774             0.00670376902            0.000551342857           
       2.871415             0.00668378853            0.000559095768           
       2.874055             0.00680341889            0.000539187556           
       2.876696             0.00599299951            0.000519743862           
       2.879336             0.00754869042            0.000562203395           
       2.881976             0.00720773907            0.000566627164           
       2.884617             0.00708311418            0.000553457666           
       2.887257             0.00790955772            0.000587874007           
       2.889897             0.00724562828            0.000551080081           
       2.892538             0.00749408599            0.000613973819           
       2.895178             0.00636265249             0.00051109984           
       2.897819             0.00712366938            0.000551670014           
       2.900459             0.00685103523            0.000530486023           
       2.903099              0.0064768738            0.000510516941           
       2.905740              0.0057911382            0.000495225128           
       2.908380             0.00731515243            0.000562910264           
       2.911021             0.00806077434            0.000600509664           
       2.913661             0.00719240395            0.000567072416           
       2.916301              0.0078878603            0.000594422248           
       2.918942             0.00741105046            0.000551126731           
       2.921582             0.00690592657            0.000556639284           
       2.924222             0.00642677296            0.000520231834           
       2.926863             0.00767600542            0.000592209655           
       2.929503              0.0081444507            0.000617239597           
       2.932144             0.00577039307            0.000498734193           
       2.934784             0.00646718025            0.000519330362           
       2.937424             0.00693399426            0.000543267911           
       2.940065             0.00713364888            0.000525634111           
       2.942705             0.00629900668            0.000493308397           
       2.945346             0.00688674115            0.000547404442           
       2.947986             0.00560104109            0.000503371493           
       2.950626             0.00630273843            0.000530966031           
       2.953267             0.00717992117            0.000557554839           
       2.955907             0.00754968673            0.000593092989           
       2.958547             0.00734368917            0.000552218643           
       2.961188             0.00692476582            0.000559444515           
       2.963828             0.00744294668            0.000567345827           
       2.966469             0.00623910791            0.000509570331           
       2.969109              0.0077577586            0.000576631745           
       2.971749             0.00655321277            0.000526671464           
       2.974390             0.00822592307            0.000579853679           
       2.977030             0.00701648634            0.000547500831           
       2.979670             0.00820381593            0.000575848821           
       2.982311              0.0093289685            0.000636451866           
       2.984951             0.00746783759            0.000541585309           
       2.987592             0.00640623709            0.000511662442           
       2.990232             0.00662988818            0.000541332346           
       2.992872              0.0074281257            0.000539728494           
       2.995513             0.00780653865            0.000541314893           
       2.998153              0.0118295689            0.000677549858           
       3.000794               0.012640376             0.00067839476           
       3.003434              0.0107600082            0.000626850572           
       3.006074              0.0302180958             0.00103576486           
       3.008715               0.101751637              0.0018347071           
       3.011355               0.224742261             0.00262942598           
       3.013995               0.139800082             0.00207946825           
       3.016636              0.0804574411             0.00154479008           
       3.019276               0.142462467             0.00202060359           
       3.021917               0.505349007             0.00365929809           
       3.024557                1.36448036             0.00591174515           
       3.027197                 1.1371921             0.00526174922           
       3.029838               0.589256428             0.00384133684           
       3.032478               0.264824849             0.00257781028           
       3.035118              0.0682066027             0.00132578341           
       3.037759               0.078174531             0.00141752692           
       3.040399               0.107665545             0.00171599809           
       3.043040               0.415109157             0.00341075505           
       3.045680               0.394191794             0.00312713997           
       3.048320               0.114835133             0.00172455912           
       3.050961               0.115863737             0.00176278845           
       3.053601              0.0958610334             0.00154428853           
       3.056242              0.0707350065             0.00141040762           
       3.058882              0.0616918198             0.00141293037           
       3.061522              0.0441548233             0.00117278344           
       3.064163              0.0626591681             0.00137948674           
       3.066803               0.119554118             0.00200607442           
       3.069443               0.116661033             0.00207331702           
       3.072084              0.0413105429             0.00120136005           
       3.074724              0.0392983392             0.00130856172           
       3.077365              0.0766432388             0.00189172334           
       3.080005              0.0128306934            0.000778394464           
       3.082645              0.0113720716            0.000769839491           
       3.085286              0.0136620069            0.000850453614           
       3.087926              0.0104340643             0.00073749655           
       3.090566              0.0132321579            0.000813746459           
       3.093207              0.0109183905            0.000769198381           
       3.095847              0.0082942629             0.00064258875           
       3.098488             0.00839948305            0.000717026184           
       3.101128             0.00987116861            0.000782306722           
       3.103768             0.00918975756            0.000740621556           
       3.106409              0.0101512683            0.000828430124           
       3.109049             0.00816126645            0.000712832661           
       3.111690             0.00834778551            0.000708556104           
       3.114330             0.00738152178            0.000680461457           
       3.116970               0.005526841            0.000593322018           
       3.119611              0.0110104534            0.000891401449           
       3.122251              0.0162860161             0.00113402803           
       3.124891               0.031416562             0.00158972605           
       3.127532              0.0235565955             0.00134668903           
       3.130172              0.0167388749             0.00115482037           
       3.132813              0.0104516902            0.000898348975           
       3.135453             0.00596927291            0.000673318189           
       3.138093              0.0068589056            0.000782042112           
       3.140734             0.00683422137            0.000720194607           
       3.143374             0.00865469631            0.000857096251           
       3.146014             0.00636681908            0.000791402401           
       3.148655             0.00629089383            0.000731282101           
       3.151295              0.0048999965            0.000687770925           
       3.153936             0.00585270908            0.000726085836           
       3.156576             0.00655935602            0.000758214811           
       3.159216             0.00646932461            0.000756759659           
       3.161857             0.00595341135            0.000723003429           
       3.164497             0.00639229335            0.000787171557           
       3.167138             0.00825721392            0.000924401687           
       3.169778             0.00579103856            0.000761378105           
       3.172418             0.00616840949            0.000777801283           
       3.175059             0.00614022742            0.000687976754           
       3.177699             0.00508322775            0.000662861004           
       3.180339             0.00615573937            0.000781544198           
       3.182980             0.00581557413            0.000785394015           
       3.185620             0.00692978581            0.000873124004           
       3.188261             0.00591202577            0.000820854132           
       3.190901             0.00605113174            0.000763777629           
       3.193541             0.00658947108            0.000837484845           
       3.196182             0.00612451251            0.000841424096           
       3.198822             0.00518294052            0.000774306375           
       3.201463             0.00581087469            0.000805745687           
       3.204103             0.00707978128            0.000883968491           
       3.206743             0.00540228071            0.000772101992           
       3.209384             0.00552461689            0.000843582639           
       3.212024             0.00537343782             0.00077564804           
       3.214664              0.0059385945            0.000927246717           
       3.217305             0.00667226483             0.00093427297           
       3.219945             0.00649526688            0.000948767817           
       3.222586             0.00730640207            0.000958452594           
       3.225226             0.00496051775            0.000876089929           
       3.227866             0.00542556765            0.000837431315           
       3.230507             0.00568327523            0.000888466408           
       3.233147             0.00351016378            0.000703879214           
       3.235787             0.00544950125            0.000897527271           
       3.238428             0.00481024012            0.000909965715           
       3.241068             0.00555086531            0.000914022079           
       3.243709             0.00595087491            0.000977763609           
       3.246349             0.00655773022            0.000935667029           
       3.248989             0.00539701687             0.00100228087           
       3.251630             0.00535180387             0.00096111783           
       3.254270             0.00689152838            0.000974742913           
       3.256911             0.00557337326             0.00095644566           
       3.259551             0.00798521686             0.00123252179           
       3.262191              0.0071492223             0.00119123593           
       3.264832              0.0062703505              0.0011656504           
       3.267472             0.00436853529            0.000912731313           
       3.270112             0.00462580822             0.00103796139           
       3.272753             0.00546104303             0.00103228584           
       3.275393              0.0046616085            0.000973147217           
       3.278034             0.00625410162             0.00112781419           
       3.280674             0.00574321449             0.00117278369           
       3.283314             0.00536584157             0.00101383887           
       3.285955                0.00551921              0.0010609032           
       3.288595             0.00661265042             0.00129193219           
       3.291235             0.00558040144             0.00122004025           
       3.293876             0.00630374494             0.00131533723           
       3.296516             0.00581442386             0.00121275346           
       3.299157             0.00662147133             0.00127792358           
       3.301797             0.00800612654             0.00160289293           
       3.304437             0.00579726819             0.00118171804           
       3.307078             0.00581547393             0.00130377759           
       3.309718             0.00528900862             0.00128337446           
       3.312359             0.00530319137              0.0012853993           
       3.314999             0.00572965016             0.00131548314           
       3.317639             0.00691755916             0.00138237812           
       3.320280             0.00499886043             0.00124940571           
       3.322920             0.00449105574             0.00120417877           
       3.325560             0.00417015976             0.00116114924           
       3.328201             0.00730173348             0.00138377833           
       3.330841             0.00779899434             0.00174054688           
       3.333482              0.0044894514             0.00124824651           
       3.336122             0.00346613744             0.00109730208           
       3.338762             0.00837294148             0.00197007408           
       3.341403             0.00338226447              0.0011964545           
       3.344043             0.00658262703             0.00160250935           
       3.346683             0.00650314588             0.00162612438           
       3.349324             0.00512791283             0.00162351293           
       3.351964             0.00571504494             0.00181242614           
       3.354605             0.00905478102             0.00260905768           
       3.357245             0.00487667361             0.00172728621           
       3.359885             0.00392983488             0.00124100973           
       3.362526             0.00486906206             0.00172746367           
       3.365166             0.00706719786             0.00196295672           
       3.367807             0.00358879377              0.0017902033           
       3.370447             0.00429925913             0.00162535615           
       3.373087             0.00346739698             0.00156092044           
       3.375728             0.00354197725             0.00178049638           
       3.378368             0.00398055392             0.00280130158           
       3.381008             0.00437522162             0.00218960752           
       3.383649             0.00353644395             0.00157918895           
       3.386289             0.00194003745              0.0013843194           
       3.388930              0.0100003836             0.00497144789           
       3.391570             0.00362610592             0.00211766517           
       3.394210             0.00396209297             0.00280136275           
       3.396851             0.00497059111             0.00350981992           
       3.399491             0.00246002076             0.00246985975           
       3.402131             0.00490175847             0.00493259376           
       3.404772           -2.65304592e-05                         0           
       3.407412                       nan                       nan           
       3.410053             0.00929346399             0.00961927102           
       3.412693                       nan                       nan           
       3.415333           -2.66466279e-05                         0           
