################################################################################
# EDF_DataBlockID                     0.Image.Psd
# EDF_BinarySize                      2105344
# EDF_HeaderSize                      2560
# ByteOrder                           LowByteFirst
# DataType                            FloatValue
# Dim_1                               512
# Dim_2                               1028
# Image                               0
# HeaderID                            EH:000000:000000:000000
# Size                                2105344
# Center_1                            304.9000
# Center_2                            588.7000
# Comment                             Xenocs_Cell_Window - 20251028_20perc_iodine_1.23mg
# DDummy                              0.6
# Date                                2025-11-02T10:26:40
# Delta                               21.910000
# Dummy                               -1.5
# ExposureTime                        360
# Gamma                               15.360000
# Intensity1                          8.75422e-10
# PSize_1                             7.5e-05
# PSize_2                             7.5e-05
# Pressure                            0.032608
# SampleDistance                      0.115750
# SampleEnvKind                       large
# SampleEnvPN                         ElectroChemical cell
# SampleEnvSN                         1141
# Thickness                           0
# Wavelength                          1.541891e-10
# Wavelength                          1.54189e-10
# aux                                 0
# aux_dial                            0.002375
# beamx                               588.434
# beamx_dial                          588.434
# beamz                               657.808
# beamz_dial                          657.808
# det0x                               0
# det0x_dial                          6.36945
# det0xvd                             0
# det0xvd_dial                        0
# det0y                               450.002
# det0y_dial                          481.635
# det0z                               0
# det0z_dial                          1.23302
# det0zvd                             0
# det0zvd_dial                        0
# mag                                 1.818
# mag_dial                            1.818
# om                                  0.2499
# om_dial                             -0.610199
# phi                                 -0.0120535
# phi_dial                            0
# ry                                  0.599993
# ry_dial                             0.599993
# s1bot                               0.8
# s1bot_dial                          -1.66094
# s1hl                                0.8
# s1hl_dial                           -0.608437
# s1hr                                0.8
# s1hr_dial                           0.970938
# s1top                               0.8
# s1top_dial                          -0.461562
# s2bot                               0.45
# s2bot_dial                          1.36109
# s2hl                                0.45
# s2hl_dial                           -0.83375
# s2hr                                0.45
# s2hr_dial                           -0.118594
# s2top                               0.45
# s2top_dial                          1.44734
# w2theta                             32
# w2theta_dial                        32
# waxsch                              19.2605
# waxsch_dial                         -32.7355
# waxsh                               137.085
# waxsh_dial                          -43.5338
# waxsth                              26.0607
# waxsth_dial                         -19.4086
# waxsz                               67.0407
# waxsz_dial                          -23.7954
# wind                                65.9854
# wind_dial                           66.0041
# wpsi                                124
# wpsi_dial                           124
# wstod                               115
# wstod_dial                          115
# x                                   0
# x_dial                              1.00969
# z                                   0
# z_dial                              13.3172
# CountCutoff                         6807993
# DetectorModel                       Dectris EIGER2 Si 500K, S/N E-01-0554
# ThresholdSetting                    4023.88989258
# Saturation                          0
# FlatField                           Corrected
# BackgroundReductionExtra            0.02
# BackgroundCorrectionConstant        0.0026712
# Detector                            0
# Monitor                             0
# Pil_Roi0                            0
# SumForIntensity1                    3.15152e+08
# TransmittedFlux                     875422
# det                                 0
# mon                                 0
# pilai0                              3.15152e+08
# pilai1                              794000
# pilct0                              5.44786e+08
# pilct1                              794000
# pilroi0                             0
# pilroi1                             0
# sec                                 1
# title                               20251028_20perc_iodine_1.23mg_1_01055.edf
# usaxs0                              0
# Operation                           Azimuthal average I(q)
# Error_model                         ErrorModel.poisson
# Geometrical_correction              True
# Transmission_correction             True
# Thickness_correction                False
# Binning mode                        Uniform
# Binning factor                      1.0
# Psi                                 0.0
# Omega                               0.2499
# MaskInvalidPixels                   True
# DetectorEdge                        3
# MaskFiles                           ['WAXS_corrected.edf']
################################################################################
    q(A⁻¹)                Intensity(a.u.)            Sigma_I(a.u.)            
       0.693100             0.00806917136             0.00591861117           
       0.695741             0.00822626005             0.00487656791           
       0.698381             0.00407492388             0.00420422225           
       0.701021             0.00861054368             0.00863959507           
       0.703662              0.0138810256             0.00633181681           
       0.706302              0.0101104654             0.00418369766           
       0.708942              0.0083493245             0.00490706085           
       0.711583             0.00212410428             0.00214323348           
       0.714223             0.00573798315             0.00406687778           
       0.716864             0.00122681796              0.0012303887           
       0.719504             0.00867388672             0.00353042507           
       0.722144             0.00741098142             0.00302207199           
       0.724785             0.00463661346             0.00190677212           
       0.727425             0.00424641072             0.00246859244           
       0.730065             0.00633003359             0.00213197751           
       0.732706             0.00402746992              0.0014280536           
       0.735346             0.00940912225             0.00284529319           
       0.737987             0.00680564758             0.00170995337           
       0.740627             0.00846202406             0.00284494026           
       0.743267             0.00770874847             0.00181873791           
       0.745908             0.00812757337             0.00202613023           
       0.748548             0.00642222232              0.0016601373           
       0.751189             0.00782161959             0.00246868804           
       0.753829             0.00459610676             0.00173955445           
       0.756469              0.0055183797             0.00153702918           
       0.759110               0.007091649             0.00183620207           
       0.761750             0.00591764003             0.00148313878           
       0.764390              0.0064714193             0.00162335221           
       0.767031             0.00576563476             0.00132689241           
       0.769671             0.00378656007             0.00134137192           
       0.772312             0.00632369838             0.00131966504           
       0.774952             0.00851091021             0.00206740641           
       0.777592             0.00746027875             0.00140984891           
       0.780233              0.0080856625             0.00177082898           
       0.782873             0.00673908198             0.00154618628           
       0.785513             0.00814096875             0.00181678387           
       0.788154             0.00593964832             0.00129816369           
       0.790794                 0.0044454             0.00134265227           
       0.793435             0.00590662059             0.00139036198           
       0.796075             0.00698120921             0.00145609542           
       0.798715             0.00802959547             0.00184537268           
       0.801356             0.00749236507             0.00153420231           
       0.803996             0.00909935173             0.00172373742           
       0.806637             0.00515933396             0.00103293959           
       0.809277             0.00775196592             0.00137045684           
       0.811917             0.00676561667             0.00119688046           
       0.814558             0.00886020306             0.00142353707           
       0.817198             0.00722706255             0.00122144211           
       0.819838             0.00717993596             0.00123215255           
       0.822479              0.0091005106             0.00162894407           
       0.825119             0.00695165881             0.00121174501           
       0.827760             0.00713390843             0.00124343652           
       0.830400             0.00804134933             0.00124250894           
       0.833040             0.00988425312             0.00144324694           
       0.835681              0.0054208408             0.00121505835           
       0.838321             0.00690962089             0.00115139578           
       0.840961             0.00635774411             0.00120335852           
       0.843602             0.00646788698             0.00111304675           
       0.846242             0.00706017647             0.00116272013           
       0.848883             0.00883692827             0.00133120473           
       0.851523             0.00605563944             0.00108829257           
       0.854163             0.00817048245             0.00134433864           
       0.856804              0.0075160671             0.00115932738           
       0.859444             0.00702932203             0.00109851991           
       0.862085             0.00803401618             0.00122402305           
       0.864725             0.00783627995             0.00123714974           
       0.867365             0.00756563585              0.0011272128           
       0.870006             0.00959094033             0.00120940476           
       0.872646             0.00704307387             0.00108679581           
       0.875286             0.00914114117             0.00119115985           
       0.877927             0.00778125291             0.00106047622           
       0.880567             0.00870561208              0.0011621016           
       0.883208              0.0101656154             0.00124394289           
       0.885848             0.00917420354             0.00122699001           
       0.888488             0.00633391765            0.000956240879           
       0.891129             0.00607090929            0.000961258416           
       0.893769             0.00654605306            0.000955271419           
       0.896410              0.0085889587             0.00102020265           
       0.899050              0.0077655323             0.00106681015           
       0.901690              0.0062557087             0.00104299812           
       0.904331             0.00766142055             0.00102330626           
       0.906971             0.00774905693             0.00109483782           
       0.909611             0.00640497911            0.000906104612           
       0.912252             0.00656284623            0.000947374655           
       0.914892             0.00912929203             0.00122103932           
       0.917533              0.0074236209             0.00104161794           
       0.920173             0.00703931187            0.000941069332           
       0.922813             0.00746541481             0.00101699616           
       0.925454             0.00864895285            0.000985699495           
       0.928094             0.00676670088            0.000930793722           
       0.930734              0.0093516896             0.00117806335           
       0.933375             0.00840502659             0.00110586633           
       0.936015             0.00801186273            0.000980591158           
       0.938656             0.00678174335            0.000967823075           
       0.941296             0.00815083914            0.000961582678           
       0.943936             0.00719313778            0.000885851466           
       0.946577             0.00720335795            0.000880619894           
       0.949217             0.00746438057            0.000824351531           
       0.951858             0.00757489978            0.000869296432           
       0.954498              0.0108529548             0.00120439189           
       0.957138             0.00839957431             0.00100378094           
       0.959779             0.00581893138            0.000823603719           
       0.962419             0.00906260792             0.00102099789           
       0.965059             0.00534748624            0.000824861049           
       0.967700              0.0069239617            0.000961318713           
       0.970340             0.00854408354            0.000944968893           
       0.972981             0.00804906426            0.000835644545           
       0.975621             0.00716885299            0.000838967258           
       0.978261             0.00832600982            0.000859097834           
       0.980902             0.00948656916             0.00109716855           
       0.983542             0.00845599579              0.0009173217           
       0.986182             0.00768980412            0.000858849838           
       0.988823             0.00724036784            0.000809207538           
       0.991463             0.00925749659            0.000976221425           
       0.994104             0.00691694368            0.000823176196           
       0.996744             0.00723314708             0.00085861031           
       0.999384             0.00718710974            0.000765437232           
       1.002025             0.00692246463            0.000838452418           
       1.004665             0.00807475042            0.000827560978           
       1.007306             0.00814558041            0.000826928195           
       1.009946             0.00848381753            0.000860682635           
       1.012586             0.00711877166            0.000767860999           
       1.015227             0.00897691547            0.000926348716           
       1.017867             0.00848606336            0.000865602914           
       1.020507             0.00805329587            0.000816794797           
       1.023148             0.00859364637            0.000910431601           
       1.025788             0.00793958755            0.000802397457           
       1.028429             0.00766478214            0.000825966994           
       1.031069             0.00954626986            0.000867435123           
       1.033709             0.00959320413            0.000924349613           
       1.036350             0.00775166855            0.000746267391           
       1.038990             0.00775244717            0.000760019254           
       1.041630             0.00810012055             0.00081028807           
       1.044271              0.0087316227            0.000791194412           
       1.046911             0.00833300551            0.000813014794           
       1.049552             0.00780372529            0.000826603248           
       1.052192             0.00803811616            0.000766045087           
       1.054832             0.00749849584            0.000746615706           
       1.057473             0.00912140146            0.000811754569           
       1.060113             0.00838243797            0.000758935471           
       1.062754             0.00906889973            0.000805963213           
       1.065394             0.00921169735             0.00085879387           
       1.068034             0.00815725818            0.000735304385           
       1.070675             0.00925308912            0.000816909389           
       1.073315              0.0100240266              0.0008624471           
       1.075955             0.00906856759            0.000774424356           
       1.078596             0.00904272632            0.000821885945           
       1.081236             0.00870821861            0.000772315772           
       1.083877             0.00895341773            0.000776088399           
       1.086517             0.00879154456            0.000824636753           
       1.089157             0.00950706659            0.000889791725           
       1.091798             0.00924941019            0.000769451562           
       1.094438             0.00972723888            0.000786529608           
       1.097078             0.00790188445            0.000679910497           
       1.099719               0.007989842            0.000739508926           
       1.102359             0.00792997364            0.000689959383           
       1.105000             0.00787576081            0.000768867337           
       1.107640             0.00837267356            0.000757999622           
       1.110280             0.00872148384            0.000705876416           
       1.112921             0.00889909584            0.000765945963           
       1.115561             0.00858159831            0.000714863536           
       1.118202             0.00973627284            0.000762157015           
       1.120842             0.00897092562             0.00076890397           
       1.123482             0.00756846378            0.000703163558           
       1.126123             0.00828090662            0.000705481951           
       1.128763             0.00986410457            0.000775252716           
       1.131403             0.00825882853             0.00068354012           
       1.134044             0.00904916616            0.000736250275           
       1.136684             0.00961387988            0.000809092872           
       1.139325             0.00970788261            0.000748970455           
       1.141965             0.00935602338            0.000740132882           
       1.144605             0.00850235478            0.000672753097           
       1.147246             0.00901889319            0.000709110405           
       1.149886              0.0101339546            0.000749000745           
       1.152527             0.00956963023            0.000738431783           
       1.155167              0.0092318662            0.000689854688           
       1.157807             0.00811435772            0.000693436828           
       1.160448             0.00870799337            0.000701491651           
       1.163088             0.00862755605            0.000666022247           
       1.165728             0.00921812547            0.000706834448           
       1.168369             0.00932793897            0.000717601097           
       1.171009             0.00904074081            0.000685607653           
       1.173650             0.00963742152            0.000726444348           
       1.176290             0.00983106553            0.000716995594           
       1.178930             0.00960093644            0.000694447485           
       1.181571              0.0080811635            0.000649751806           
       1.184211             0.00929881217            0.000699457591           
       1.186851             0.00950416746             0.00069135945           
       1.189492              0.0085434381            0.000651075878           
       1.192132             0.00872661413            0.000650635594           
       1.194773              0.0102749576            0.000709085107           
       1.197413             0.00944528433            0.000651396692           
       1.200053              0.0102646286            0.000696316286           
       1.202694              0.0103722508            0.000665619172           
       1.205334              0.0102183746            0.000711988332           
       1.207975             0.00884501662            0.000632295451           
       1.210615               0.010048262            0.000743461723           
       1.213255             0.00974747803            0.000655712853           
       1.215896             0.00959495935            0.000662350201           
       1.218536             0.00947941121            0.000633031619           
       1.221176             0.00843370655            0.000649165563           
       1.223817              0.0107433391            0.000687781579           
       1.226457             0.00933064984            0.000653881869           
       1.229098             0.00979305563            0.000669855768           
       1.231738              0.0102169405            0.000687566678           
       1.234378             0.00940795973            0.000619966708           
       1.237019              0.0106688444            0.000680335825           
       1.239659              0.0100162268            0.000653456989           
       1.242299             0.00887492216            0.000607287146           
       1.244940               0.010840388            0.000652757445           
       1.247580               0.009429931            0.000627431233           
       1.250221              0.0102186481             0.00064911335           
       1.252861              0.0102654046            0.000619371185           
       1.255501              0.0107959921            0.000689679984           
       1.258142              0.0101345834            0.000627912323           
       1.260782              0.0100609268            0.000639163216           
       1.263423             0.00986028048            0.000608008545           
       1.266063              0.0109785425            0.000657580783           
       1.268703              0.0105242089            0.000638487891           
       1.271344             0.00991474624            0.000640727517           
       1.273984              0.0103856323             0.00063334081           
       1.276624              0.0106610822            0.000629629615           
       1.279265              0.0102902807             0.00062885573           
       1.281905              0.0104898623            0.000637742715           
       1.284546              0.0095310538            0.000587589029           
       1.287186              0.0109760912              0.0006186472           
       1.289826              0.0105353779            0.000638779736           
       1.292467              0.0125224056            0.000681078767           
       1.295107              0.0111351727             0.00063586696           
       1.297747              0.0104354175            0.000589042921           
       1.300388              0.0112053083            0.000665396825           
       1.303028              0.0106830197            0.000620246854           
       1.305669              0.0109420926            0.000642669225           
       1.308309              0.0102143924            0.000614816623           
       1.310949              0.0113509021            0.000647467316           
       1.313590              0.0107969533            0.000611731734           
       1.316230              0.0109593451            0.000657693628           
       1.318871              0.0111171903            0.000648752211           
       1.321511              0.0114614904            0.000646511971           
       1.324151              0.0107423924            0.000607346574           
       1.326792              0.0111594941            0.000622852269           
       1.329432              0.0102610215            0.000593037971           
       1.332072              0.0103643389            0.000587133655           
       1.334713              0.0105452729            0.000611246722           
       1.337353              0.0110981451            0.000601368214           
       1.339994              0.0113198592            0.000637348548           
       1.342634              0.0117729971            0.000623290018           
       1.345274              0.0105525131            0.000610696623           
       1.347915              0.0118234625            0.000628576608           
       1.350555              0.0112559446            0.000624046822           
       1.353195              0.0114411173            0.000632249122           
       1.355836              0.0107604912             0.00060359371           
       1.358476              0.0112331478            0.000598916839           
       1.361117              0.0116793049            0.000611533141           
       1.363757              0.0113128064            0.000620239231           
       1.366397              0.0113563042            0.000602625261           
       1.369038              0.0118747146            0.000622362469           
       1.371678              0.0101757837            0.000571044557           
       1.374319              0.0105098322            0.000575344695           
       1.376959              0.0111412927            0.000586419501           
       1.379599              0.0110117902            0.000624800923           
       1.382240              0.0108379293            0.000582564946           
       1.384880              0.0102481703            0.000600044545           
       1.387520              0.0111264705            0.000593799165           
       1.390161              0.0118782353            0.000582707497           
       1.392801              0.0113368751            0.000593128294           
       1.395442              0.0113892496            0.000602616257           
       1.398082              0.0107012972              0.0005470148           
       1.400722              0.0121064522            0.000609444023           
       1.403363              0.0130579341            0.000666246357           
       1.406003              0.0102334542            0.000551978623           
       1.408644              0.0100492469            0.000573005621           
       1.411284              0.0116783629             0.00058491451           
       1.413924               0.011676154            0.000582690964           
       1.416565              0.0106087123            0.000553235951           
       1.419205               0.010131309            0.000563978547           
       1.421845               0.010939812            0.000585705968           
       1.424486              0.0110672085            0.000566266696           
       1.427126              0.0119958887            0.000612424978           
       1.429767             0.00998231514             0.00052563689           
       1.432407              0.0109039118            0.000574923805           
       1.435047               0.011871545            0.000563397738           
       1.437688              0.0114402161            0.000561337416           
       1.440328              0.0113405561            0.000570406977           
       1.442968              0.0111193727            0.000577472094           
       1.445609              0.0116304429            0.000571858714           
       1.448249               0.010847986            0.000566270997           
       1.450890              0.0100831859            0.000542381332           
       1.453530                0.01173255            0.000612092755           
       1.456170              0.0103636846            0.000558321256           
       1.458811              0.0107069055            0.000542647056           
       1.461451               0.010906245            0.000549111908           
       1.464092             0.00999154931            0.000529017151           
       1.466732              0.0116202361            0.000565604272           
       1.469372              0.0111501281            0.000541078763           
       1.472013              0.0105844279             0.00056856805           
       1.474653              0.0103015148            0.000552265034           
       1.477293              0.0113290198            0.000591359421           
       1.479934               0.011241249            0.000562090314           
       1.482574              0.0105929343             0.00052782237           
       1.485215              0.0110910225            0.000550148425           
       1.487855               0.010668385            0.000546682314           
       1.490495              0.0111661353            0.000557230276           
       1.493136              0.0107897274            0.000540249658           
       1.495776              0.0101262268             0.00052099204           
       1.498416              0.0106268628            0.000551177133           
       1.501057               0.010405074            0.000533375413           
       1.503697                 0.0112048              0.0005411281           
       1.506338              0.0108459418            0.000542120849           
       1.508978              0.0108536901            0.000536981175           
       1.511618              0.0100184411            0.000549437183           
       1.514259              0.0101054159            0.000532753454           
       1.516899              0.0103771922            0.000525654312           
       1.519540              0.0117949137            0.000569449401           
       1.522180              0.0104790497            0.000541460902           
       1.524820              0.0105791706             0.00054098909           
       1.527461              0.0105260879            0.000542298968           
       1.530101              0.0106788663            0.000540757536           
       1.532741              0.0105210217            0.000533631242           
       1.535382              0.0106946696            0.000546678385           
       1.538022              0.0112683981             0.00052863342           
       1.540663             0.00968436656            0.000527101783           
       1.543303              0.0111311445            0.000524708773           
       1.545943              0.0121428859            0.000580056021           
       1.548584              0.0106751481            0.000553633865           
       1.551224              0.0107801343             0.00051439778           
       1.553864              0.0108392718            0.000545046255           
       1.556505              0.0101497931            0.000509507602           
       1.559145              0.0118011986            0.000556125588           
       1.561786              0.0104854622            0.000524611676           
       1.564426             0.00971827983            0.000489345917           
       1.567066             0.00963239595            0.000510469903           
       1.569707              0.0103436468            0.000519478536           
       1.572347               0.010214953            0.000533324217           
       1.574988              0.0102097964            0.000507507088           
       1.577628               0.010058936            0.000525280428           
       1.580268              0.0107796607            0.000526858249           
       1.582909             0.00959330321            0.000526823206           
       1.585549              0.0102536523            0.000528840902           
       1.588189             0.00986719286            0.000507456645           
       1.590830             0.00959618034            0.000499811112           
       1.593470             0.00997413202            0.000529735179           
       1.596111             0.00938021609            0.000501551702           
       1.598751              0.0105568014             0.00051556594           
       1.601391             0.00961146344            0.000502794322           
       1.604032              0.0095581359            0.000511879347           
       1.606672             0.00998847295            0.000508412006           
       1.609312             0.00876123176            0.000497050687           
       1.611953             0.00893407623             0.00049116953           
       1.614593             0.00947788569            0.000496245142           
       1.617234              0.0100019824            0.000528325089           
       1.619874             0.00996806723            0.000525345117           
       1.622514             0.00907080869            0.000494307304           
       1.625155              0.0103511366            0.000531160888           
       1.627795             0.00865091709            0.000473684985           
       1.630436              0.0103985371            0.000516619725           
       1.633076              0.0102981595            0.000520863091           
       1.635716             0.00929699812            0.000487197192           
       1.638357             0.00838348022            0.000463862009           
       1.640997              0.0101038736            0.000524663587           
       1.643637             0.00992901713            0.000506119708           
       1.646278             0.00955913334            0.000512206362           
       1.648918             0.00944128018            0.000510427737           
       1.651559             0.00828928424            0.000481986743           
       1.654199             0.00889156281            0.000485505845           
       1.656839             0.00930995907            0.000496970797           
       1.659480             0.00885430087             0.00050285635           
       1.662120             0.00846013499            0.000462946061           
       1.664761             0.00858324085             0.00048436755           
       1.667401             0.00924213056            0.000480392316           
       1.670041             0.00919137237            0.000486376088           
       1.672682             0.00905913938            0.000480880097           
       1.675322             0.00895327797            0.000474987986           
       1.677962             0.00927742503            0.000478176107           
       1.680603             0.00858586247            0.000461424329           
       1.683243             0.00842558212            0.000476895596           
       1.685884             0.00964056678            0.000513889758           
       1.688524             0.00834431052             0.00046885304           
       1.691164             0.00892267459            0.000484939541           
       1.693805             0.00820126366            0.000470029741           
       1.696445             0.00883069324            0.000490562438           
       1.699085             0.00856455439            0.000466925389           
       1.701726             0.00916571093            0.000465319452           
       1.704366             0.00936950964            0.000495621114           
       1.707007             0.00837331311            0.000458088735           
       1.709647             0.00958314839            0.000495600904           
       1.712287             0.00837448492            0.000467327012           
       1.714928             0.00901968799            0.000488905686           
       1.717568             0.00794245127            0.000432174704           
       1.720209             0.00867001699            0.000472952266           
       1.722849             0.00854109076            0.000467009262           
       1.725489             0.00900329948            0.000479881706           
       1.728130             0.00942365416            0.000521749181           
       1.730770             0.00961809648            0.000500607552           
       1.733410             0.00794481779             0.00044783073           
       1.736051             0.00880754887            0.000474801265           
       1.738691             0.00804408741            0.000444558133           
       1.741332             0.00926572178            0.000491073761           
       1.743972             0.00788322536            0.000467757282           
       1.746612             0.00872461115             0.00047252868           
       1.749253             0.00941890078            0.000500666198           
       1.751893             0.00986281153            0.000508567931           
       1.754533              0.0086440972            0.000475666598           
       1.757174             0.00869938862            0.000472716861           
       1.759814             0.00903564234            0.000474463466           
       1.762455             0.00782197959            0.000449556038           
       1.765095             0.00836102106            0.000444626485           
       1.767735             0.00765993544             0.00043870612           
       1.770376             0.00911343037            0.000479783702           
       1.773016             0.00886787279            0.000470105649           
       1.775657             0.00919898916            0.000471912519           
       1.778297             0.00824699741            0.000442979396           
       1.780937             0.00821567444            0.000466675817           
       1.783578             0.00894238837            0.000474704314           
       1.786218             0.00838834284            0.000479813525           
       1.788858             0.00886017894            0.000468348282           
       1.791499             0.00789192628            0.000437052963           
       1.794139             0.00776018851            0.000429873637           
       1.796780              0.0085560404            0.000449202674           
       1.799420             0.00834024121            0.000441045632           
       1.802060             0.00964711616            0.000478174936           
       1.804701             0.00883180871             0.00043905984           
       1.807341             0.00815616147            0.000443358075           
       1.809981              0.0101951625            0.000497341086           
       1.812622             0.00943426358            0.000469808986           
       1.815262             0.00904857714            0.000469879242           
       1.817903             0.00854425908            0.000449831933           
       1.820543             0.00837041735            0.000452169993           
       1.823183             0.00850987304             0.00045567049           
       1.825824             0.00889220372            0.000445000899           
       1.828464             0.00899181561            0.000466523964           
       1.831105             0.00781545734            0.000422912996           
       1.833745             0.00838418199            0.000447385328           
       1.836385             0.00824768787            0.000456392004           
       1.839026              0.0082549463            0.000455150204           
       1.841666             0.00836065496            0.000456430914           
       1.844306             0.00823192956            0.000440545854           
       1.846947             0.00747161147            0.000423387233           
       1.849587             0.00754085475            0.000469683531           
       1.852228             0.00724123291            0.000416187247           
       1.854868             0.00819559628            0.000467715206           
       1.857508             0.00834164889             0.00046723635           
       1.860149             0.00783815021            0.000461144622           
       1.862789             0.00813137244            0.000453360484           
       1.865429              0.0074037684            0.000451569911           
       1.868070             0.00785346352            0.000458882922           
       1.870710             0.00838282265            0.000463166051           
       1.873351             0.00930190996            0.000493927949           
       1.875991             0.00853347654            0.000480807348           
       1.878631             0.00845893263            0.000469534489           
       1.881272             0.00720974758            0.000430576237           
       1.883912             0.00729731547            0.000450817702           
       1.886553             0.00713664276             0.00044084266           
       1.889193             0.00840902821            0.000477712761           
       1.891833             0.00786538652            0.000479818271           
       1.894474             0.00833962193            0.000489768775           
       1.897114             0.00814967752            0.000468510682           
       1.899754             0.00726813758            0.000444297825           
       1.902395             0.00763951417            0.000446601737           
       1.905035             0.00880238288            0.000507752832           
       1.907676             0.00886399776            0.000480230524           
       1.910316             0.00780760486            0.000462673563           
       1.912956             0.00764450934            0.000447743593           
       1.915597             0.00742087421            0.000443611262           
       1.918237             0.00698846273            0.000444594276           
       1.920878             0.00843936068            0.000486571108           
       1.923518              0.0085103466            0.000488820485           
       1.926158             0.00674996564            0.000429688822           
       1.928799             0.00777244484            0.000455748973           
       1.931439             0.00899966577             0.00050327382           
       1.934079             0.00782530349            0.000489223778           
       1.936720             0.00748131065            0.000443205199           
       1.939360             0.00863471192            0.000507981138           
       1.942001             0.00777456613            0.000441792653           
       1.944641             0.00753710605            0.000443561848           
       1.947281             0.00770856229            0.000444443841           
       1.949922             0.00682181737            0.000431860393           
       1.952562             0.00752734307            0.000467862692           
       1.955202             0.00776752837            0.000474689114           
       1.957843             0.00782077305            0.000463961105           
       1.960483             0.00804599755            0.000492005729           
       1.963124             0.00778510324            0.000474034556           
       1.965764             0.00710493368            0.000427053634           
       1.968404             0.00731210579            0.000429141732           
       1.971045             0.00824556046            0.000464621429           
       1.973685             0.00855797149            0.000496499876           
       1.976326             0.00719678683            0.000449048059           
       1.978966             0.00823477301            0.000484556024           
       1.981606             0.00745935719             0.00047079649           
       1.984247             0.00803460503            0.000485400342           
       1.986887             0.00767102794            0.000468609234           
       1.989527             0.00772618243            0.000465226118           
       1.992168              0.0067177629            0.000450108822           
       1.994808             0.00753239003            0.000474576195           
       1.997449             0.00814034169            0.000483224685           
       2.000089             0.00808376535            0.000479633365           
       2.002729             0.00725925499            0.000454787854           
       2.005370             0.00733111864            0.000452115877           
       2.008010             0.00713029081            0.000465339976           
       2.010650              0.0070777265            0.000467081034           
       2.013291             0.00797726006            0.000475764623           
       2.015931             0.00695484649            0.000441090963           
       2.018572             0.00747670289            0.000489168672           
       2.021212             0.00727065028            0.000473714202           
       2.023852             0.00702035099            0.000440563176           
       2.026493             0.00790228221             0.00048830083           
       2.029133              0.0082853874            0.000489935275           
       2.031774             0.00775734586             0.00049752181           
       2.034414             0.00738156441            0.000446563428           
       2.037054             0.00718258989             0.00045166894           
       2.039695             0.00699419378            0.000442339819           
       2.042335             0.00784567015            0.000486866092           
       2.044975             0.00769519623            0.000476327172           
       2.047616             0.00744844988            0.000467464138           
       2.050256             0.00755328735            0.000475197339           
       2.052897             0.00793783027             0.00049612426           
       2.055537             0.00758564014            0.000468727521           
       2.058177              0.0076868186            0.000462061673           
       2.060818              0.0071283375            0.000466129834           
       2.063458             0.00756834388            0.000500521018           
       2.066098             0.00735824994              0.0004655594           
       2.068739             0.00768815331            0.000483278627           
       2.071379             0.00801896561            0.000506438957           
       2.074020             0.00717727183             0.00046871098           
       2.076660             0.00677619778            0.000459108326           
       2.079300              0.0076409156            0.000499467975           
       2.081941             0.00779815919            0.000462001494           
       2.084581             0.00823215142            0.000501032919           
       2.087222             0.00717578697            0.000451131911           
       2.089862             0.00703257188            0.000486423555           
       2.092502              0.0073728268            0.000482790129           
       2.095143             0.00688936019            0.000481929795           
       2.097783             0.00755159337             0.00048849992           
       2.100423             0.00698073899            0.000452573485           
       2.103064             0.00725852774            0.000478858313           
       2.105704             0.00769136493            0.000490487509           
       2.108345             0.00772003606            0.000472104821           
       2.110985             0.00712039258            0.000484263145           
       2.113625             0.00629431016            0.000459279359           
       2.116266             0.00800104257            0.000525163414           
       2.118906             0.00712911874            0.000461986092           
       2.121546             0.00802570399            0.000480817588           
       2.124187             0.00760516486              0.0004913089           
       2.126827             0.00801691909            0.000510063522           
       2.129468              0.0078051229            0.000504566378           
       2.132108             0.00666914821            0.000453777013           
       2.134748             0.00762602308            0.000483357119           
       2.137389             0.00796990133            0.000515505447           
       2.140029               0.007626742            0.000451466984           
       2.142670             0.00680288848            0.000455688123           
       2.145310              0.0077779379            0.000474250706           
       2.147950             0.00781844274             0.00048940258           
       2.150591             0.00784895342            0.000485400998           
       2.153231             0.00639349096            0.000450946039           
       2.155871             0.00816327241            0.000492260193           
       2.158512             0.00822203826            0.000515484084           
       2.161152             0.00698092638             0.00046010238           
       2.163793             0.00743461423            0.000472680414           
       2.166433             0.00710870289            0.000474634673           
       2.169073              0.0073096658             0.00047058157           
       2.171714             0.00731494568            0.000467232402           
       2.174354             0.00749737333            0.000494265012           
       2.176995              0.0077980674            0.000501958173           
       2.179635             0.00763145676            0.000524729775           
       2.182275             0.00722323106            0.000481995216           
       2.184916             0.00726383989            0.000466851582           
       2.187556              0.0071234552            0.000457684519           
       2.190196             0.00851523353            0.000522913492           
       2.192837             0.00743718747              0.0004860339           
       2.195477             0.00710321741            0.000452852059           
       2.198118             0.00786352785            0.000488681037           
       2.200758             0.00728963744            0.000482715677           
       2.203398             0.00721874311            0.000483435701           
       2.206039             0.00846451168            0.000495439525           
       2.208679             0.00862549647             0.00051176805           
       2.211319             0.00794633896            0.000494039426           
       2.213960             0.00701378216            0.000470364337           
       2.216600             0.00696190245            0.000484778498           
       2.219241             0.00768399216            0.000486752241           
       2.221881             0.00693880169            0.000463498955           
       2.224521             0.00703454277            0.000472404357           
       2.227162             0.00780404472            0.000487609334           
       2.229802              0.0067696098            0.000468360915           
       2.232443             0.00693847813            0.000466687593           
       2.235083             0.00662786124            0.000469576165           
       2.237723             0.00799934483            0.000495059317           
       2.240364             0.00749144343            0.000490887852           
       2.243004             0.00667870614            0.000459795832           
       2.245644             0.00796709353            0.000507217524           
       2.248285             0.00666803981            0.000454731304           
       2.250925             0.00694225151            0.000466805664           
       2.253566             0.00666572981            0.000489010971           
       2.256206             0.00713438301            0.000495793947           
       2.258846             0.00680345231            0.000460568788           
       2.261487               0.006570395            0.000475057741           
       2.264127             0.00679265402            0.000466498757           
       2.266767             0.00780763593            0.000513463835           
       2.269408             0.00706687279            0.000490499461           
       2.272048             0.00807751231            0.000521271026           
       2.274689             0.00749753444            0.000508825702           
       2.277329             0.00632630621            0.000440083374           
       2.279969             0.00663121324            0.000479599426           
       2.282610             0.00747227389            0.000494946755           
       2.285250             0.00714394988            0.000463206762           
       2.287891             0.00628210384            0.000465708534           
       2.290531             0.00716496494            0.000504043327           
       2.293171             0.00801718483             0.00051936306           
       2.295812             0.00778006296            0.000509568333           
       2.298452             0.00733783725            0.000517507021           
       2.301092             0.00772665521            0.000493402252           
       2.303733             0.00671077906            0.000478377807           
       2.306373             0.00633336874            0.000472050141           
       2.309014             0.00809080813            0.000523131491           
       2.311654             0.00700205373            0.000507855123           
       2.314294             0.00672328112            0.000458480177           
       2.316935             0.00699789741            0.000469682384           
       2.319575             0.00703449548            0.000493403608           
       2.322215             0.00690765029            0.000509552679           
       2.324856             0.00670340624              0.0004615029           
       2.327496             0.00732702502            0.000513040961           
       2.330137             0.00752706502            0.000497598456           
       2.332777             0.00733461394            0.000506475443           
       2.335417             0.00679035502            0.000472775189           
       2.338058             0.00725858967            0.000503405423           
       2.340698             0.00722142782            0.000498169299           
       2.343339             0.00736772895             0.00051426345           
       2.345979             0.00777978177            0.000499954171           
       2.348619             0.00716074935            0.000497184385           
       2.351260             0.00640238888            0.000467381549           
       2.353900             0.00777228846            0.000513330485           
       2.356540             0.00758867862            0.000506510848           
       2.359181             0.00729495005            0.000489649324           
       2.361821             0.00665220262            0.000451670657           
       2.364462             0.00604254938            0.000450224349           
       2.367102             0.00698010515            0.000497278054           
       2.369742             0.00821514046             0.00056784056           
       2.372383             0.00667264103            0.000463398973           
       2.375023             0.00715925634             0.00050458274           
       2.377663             0.00744911818            0.000492125034           
       2.380304             0.00686016344            0.000480144424           
       2.382944             0.00671371474            0.000452414643           
       2.385585             0.00763850149            0.000514668007           
       2.388225             0.00722928248            0.000498339309           
       2.390865              0.0081517571            0.000523743829           
       2.393506             0.00686113679             0.00047143258           
       2.396146             0.00621485331            0.000485133378           
       2.398787             0.00678829508            0.000467259331           
       2.401427             0.00737799606            0.000470194876           
       2.404067             0.00764698609            0.000489366877           
       2.406708             0.00750536241            0.000479000403           
       2.409348             0.00777775976            0.000517211395           
       2.411988             0.00687333789              0.0004763791           
       2.414629             0.00713118122            0.000500344167           
       2.417269             0.00779952532            0.000529374876           
       2.419910              0.0074481862            0.000518514725           
       2.422550              0.0080104312            0.000514466331           
       2.425190             0.00820125014            0.000548722383           
       2.427831             0.00663458869            0.000490762579           
       2.430471             0.00726055374             0.00048910529           
       2.433112             0.00775048679            0.000492078779           
       2.435752             0.00774141903            0.000520468249           
       2.438392             0.00732959178            0.000488813413           
       2.441033             0.00689226877            0.000502351643           
       2.443673             0.00696967984            0.000505553228           
       2.446313             0.00888835764            0.000571418082           
       2.448954             0.00685192892            0.000477694627           
       2.451594             0.00673410039            0.000509197874           
       2.454235             0.00707818806            0.000489811381           
       2.456875             0.00685570897            0.000504399307           
       2.459515              0.0078156858            0.000552499019           
       2.462156             0.00789816539            0.000524381232           
       2.464796             0.00831348257            0.000531050654           
       2.467436             0.00775712476            0.000530474738           
       2.470077              0.0081107783            0.000514127415           
       2.472717             0.00755909334            0.000498484387           
       2.475358             0.00754434417            0.000503190487           
       2.477998             0.00696984796            0.000475498691           
       2.480638              0.0081872794             0.00052451357           
       2.483279             0.00840556622              0.0005554602           
       2.485919             0.00773066698            0.000513372623           
       2.488560             0.00687724238            0.000482854411           
       2.491200             0.00614755765             0.00047009553           
       2.493840             0.00708845175            0.000534133639           
       2.496481             0.00610383517            0.000487542837           
       2.499121             0.00782900067            0.000537063295           
       2.501761             0.00718133433            0.000521184245           
       2.504402             0.00689783574            0.000503330567           
       2.507042             0.00665869184            0.000490865086           
       2.509683             0.00726043586             0.00050473131           
       2.512323             0.00664433013            0.000507103426           
       2.514963             0.00693492913             0.00051167366           
       2.517604             0.00776187963            0.000561704593           
       2.520244             0.00689080803            0.000496171394           
       2.522884             0.00807685498            0.000544859616           
       2.525525              0.0107599623            0.000636019476           
       2.528165             0.00739190513            0.000518943729           
       2.530806             0.00705334376            0.000515755943           
       2.533446             0.00681401604            0.000496110258           
       2.536086             0.00767390926            0.000521771508           
       2.538727             0.00682976851            0.000472227414           
       2.541367             0.00668107903            0.000471659495           
       2.544008             0.00724350561            0.000507197798           
       2.546648             0.00712738977            0.000511745892           
       2.549288             0.00622602072            0.000488039031           
       2.551929             0.00777294463            0.000536615942           
       2.554569              0.0077028102            0.000514646914           
       2.557209             0.00710876603            0.000498944391           
       2.559850             0.00668960425            0.000485565279           
       2.562490             0.00654378544            0.000496357948           
       2.565131             0.00700801355            0.000532588483           
       2.567771             0.00695526686            0.000511559169           
       2.570411             0.00636919753            0.000484235605           
       2.573052             0.00731682601            0.000525546205           
       2.575692              0.0070842426            0.000513994403           
       2.578332             0.00662720283            0.000499193618           
       2.580973             0.00743047312            0.000523552423           
       2.583613              0.0073819097            0.000509413255           
       2.586254              0.0067718092            0.000487230255           
       2.588894             0.00706893866            0.000516946426           
       2.591534             0.00710140889            0.000536364186           
       2.594175             0.00720667042            0.000530128504           
       2.596815             0.00713446831            0.000530576267           
       2.599456             0.00676393893            0.000489903425           
       2.602096             0.00724198679            0.000510777912           
       2.604736             0.00676311238            0.000505305959           
       2.607377             0.00618298221            0.000470415396           
       2.610017             0.00745823349            0.000507613582           
       2.612657             0.00641113242            0.000500589442           
       2.615298             0.00730941309            0.000521849587           
       2.617938             0.00617655743            0.000513165405           
       2.620579             0.00741519431            0.000539774109           
       2.623219             0.00698198244            0.000523022823           
       2.625859             0.00744249337            0.000525027515           
       2.628500             0.00702757501            0.000506838483           
       2.631140              0.0076596507            0.000537294045           
       2.633780             0.00711248362            0.000517297619           
       2.636421             0.00742458519            0.000541522942           
       2.639061             0.00674898594            0.000486034756           
       2.641702               0.007209948            0.000513988854           
       2.644342             0.00708774168            0.000511785717           
       2.646982             0.00713885513            0.000505949164           
       2.649623              0.0066919573            0.000513350301           
       2.652263             0.00644354308            0.000498677147           
       2.654904             0.00765666416            0.000544143683           
       2.657544             0.00774878686            0.000515600974           
       2.660184             0.00749970156            0.000536814265           
       2.662825             0.00674528922            0.000520910135           
       2.665465             0.00726465793            0.000522842094           
       2.668105             0.00668643068            0.000528708802           
       2.670746             0.00727585372            0.000509486962           
       2.673386             0.00889051999            0.000580412099           
       2.676027             0.00713944729            0.000511774351           
       2.678667              0.0100123549            0.000591361306           
       2.681307              0.0119002462            0.000633461842           
       2.683948              0.0144433298            0.000717031755           
       2.686588              0.0115198143            0.000629745267           
       2.689229              0.0100140109            0.000573734919           
       2.691869             0.00960286914            0.000593802317           
       2.694509             0.00927572687            0.000583920783           
       2.697150             0.00846918177            0.000548904645           
       2.699790             0.00714836546            0.000528674641           
       2.702430             0.00739290941             0.00051392066           
       2.705071             0.00651121288            0.000498368403           
       2.707711             0.00671982386            0.000491391422           
       2.710352             0.00629902577            0.000502696969           
       2.712992             0.00603805737             0.00050127376           
       2.715632             0.00644601233            0.000480537227           
       2.718273             0.00781125541            0.000548219909           
       2.720913             0.00718491269            0.000524285276           
       2.723553             0.00751800309            0.000539898767           
       2.726194             0.00639978556             0.00052071136           
       2.728834             0.00759543592            0.000567537292           
       2.731475             0.00887645356            0.000566236988           
       2.734115             0.00643259919            0.000496987342           
       2.736755             0.00768665593            0.000547747954           
       2.739396             0.00662461441            0.000505555445           
       2.742036              0.0075661323             0.00056544587           
       2.744677             0.00691692337            0.000524572709           
       2.747317             0.00699033801            0.000523588821           
       2.749957              0.0063534521            0.000502670406           
       2.752598             0.00677625386            0.000524760435           
       2.755238             0.00795118472            0.000578698347           
       2.757878             0.00703786987            0.000539688419           
       2.760519             0.00755799559            0.000553345378           
       2.763159              0.0114158074            0.000673262531           
       2.765800              0.0077957418            0.000530207229           
       2.768440             0.00856373071            0.000559804124           
       2.771080               0.008398739             0.00055901272           
       2.773721             0.00696240847            0.000522102158           
       2.776361             0.00764399685            0.000554608547           
       2.779001             0.00731971924            0.000562038565           
       2.781642              0.0073895364            0.000560550974           
       2.784282              0.0068330294             0.00054789406           
       2.786923             0.00703171437            0.000560696303           
       2.789563             0.00753751151            0.000559101078           
       2.792203             0.00771370518            0.000540307587           
       2.794844             0.00752783201            0.000584990198           
       2.797484             0.00712070012            0.000536951073           
       2.800125             0.00675544178            0.000549932855           
       2.802765             0.00699881258            0.000550121508           
       2.805405             0.00642506046             0.00052887433           
       2.808046             0.00688588433            0.000557137126           
       2.810686             0.00649476726             0.00049719252           
       2.813326               0.007474548            0.000554032741           
       2.815967             0.00681128262             0.00054391792           
       2.818607             0.00707420266             0.00052896973           
       2.821248             0.00750092358            0.000533381774           
       2.823888             0.00759635185            0.000557174581           
       2.826528             0.00595726364            0.000477847851           
       2.829169             0.00596362222            0.000500785888           
       2.831809             0.00604606658            0.000511094277           
       2.834449             0.00699706714            0.000553297302           
       2.837090             0.00685428883             0.00052891703           
       2.839730             0.00610660992            0.000496799134           
       2.842371             0.00713355041            0.000537724656           
       2.845011             0.00760561534            0.000559657456           
       2.847651             0.00662108807            0.000522820791           
       2.850292              0.0064034758            0.000519203366           
       2.852932             0.00768901522            0.000581337103           
       2.855573             0.00624143382            0.000508064939           
       2.858213             0.00648431407            0.000543811666           
       2.860853             0.00777001013            0.000553754807           
       2.863494             0.00713494861            0.000549406413           
       2.866134             0.00771270472            0.000593709987           
       2.868774             0.00607941515            0.000518041856           
       2.871415             0.00600680911            0.000522960021           
       2.874055             0.00677593232            0.000530924179           
       2.876696             0.00645925982            0.000532390558           
       2.879336             0.00762681177            0.000557571915           
       2.881976             0.00685475178            0.000545212053           
       2.884617             0.00744478346            0.000559847883           
       2.887257             0.00769750818            0.000572209359           
       2.889897             0.00746754283            0.000551997701           
       2.892538             0.00842714692            0.000642395542           
       2.895178              0.0067161496            0.000518105906           
       2.897819              0.0066160945            0.000524565918           
       2.900459              0.0070412903            0.000530632309           
       2.903099             0.00748389507            0.000541455793           
       2.905740             0.00733600265            0.000549948684           
       2.908380             0.00720982203            0.000551393279           
       2.911021             0.00723371407            0.000561285738           
       2.913661             0.00809904203            0.000593731421           
       2.916301             0.00706437063            0.000555039521           
       2.918942             0.00590153235            0.000485250181           
       2.921582              0.0067777859            0.000544099738           
       2.924222             0.00750156327            0.000554559376           
       2.926863             0.00867998463            0.000621353922           
       2.929503             0.00773299246             0.00059342849           
       2.932144             0.00729902063            0.000553439893           
       2.934784             0.00702654808             0.00053410785           
       2.937424             0.00763593892            0.000562503535           
       2.940065             0.00680065464            0.000506377914           
       2.942705             0.00700798953            0.000513394149           
       2.945346             0.00759250062             0.00056710774           
       2.947986             0.00661044554            0.000539561959           
       2.950626             0.00667188695            0.000539011653           
       2.953267             0.00784724971            0.000575119651           
       2.955907             0.00693974038            0.000561050115           
       2.958547             0.00743258897            0.000548145305           
       2.961188             0.00716910774            0.000561640927           
       2.963828             0.00842757208            0.000595659905           
       2.966469             0.00737640087            0.000546684625           
       2.969109             0.00700413471            0.000540604158           
       2.971749             0.00672485706            0.000526412146           
       2.974390              0.0083704839            0.000577129265           
       2.977030             0.00724345899            0.000548870213           
       2.979670             0.00853469679            0.000579517154           
       2.982311             0.00861699029            0.000603529179           
       2.984951             0.00715310304               0.000522984           
       2.987592             0.00708240424            0.000530816129           
       2.990232             0.00701129991            0.000549264927           
       2.992872              0.0070726138            0.000519633827           
       2.995513             0.00850908861            0.000557614375           
       2.998153              0.0115564359            0.000660755029           
       3.000794              0.0120907443            0.000654637267           
       3.003434              0.0115785179            0.000641587554           
       3.006074              0.0467276372             0.00127082648           
       3.008715               0.116607495             0.00193789834           
       3.011355               0.185152261             0.00235480423           
       3.013995              0.0974263723             0.00171280754           
       3.016636              0.0598280148             0.00131434803           
       3.019276               0.123988203             0.00185991369           
       3.021917               0.472880876             0.00349260664           
       3.024557                1.64727603             0.00640895126           
       3.027197                1.17815228             0.00528427805           
       3.029838               0.516454752             0.00354828165           
       3.032478               0.271465867             0.00257514044           
       3.035118              0.0725881193             0.00134947195           
       3.037759               0.096242018             0.00155186077           
       3.040399               0.132184018             0.00187602933           
       3.043040               0.520298223             0.00376762148           
       3.045680               0.409081916             0.00314318824           
       3.048320              0.0843967282             0.00145873103           
       3.050961               0.108044147             0.00167957257           
       3.053601               0.088323331             0.00146257057           
       3.056242              0.0559438102             0.00123758543           
       3.058882              0.0463525248             0.00120841299           
       3.061522              0.0363057031             0.00104927154           
       3.064163              0.0402695891             0.00109115271           
       3.066803               0.101733197             0.00182586152           
       3.069443               0.102752429             0.00191986447           
       3.072084              0.0550437827             0.00136825987           
       3.074724              0.0408190438              0.0013158617           
       3.077365              0.0849697814             0.00196528105           
       3.080005               0.019377448            0.000943831972           
       3.082645              0.0107914709            0.000739933065           
       3.085286              0.0113084148            0.000763424276           
       3.087926             0.00918273318            0.000682638755           
       3.090566              0.0115363231            0.000749685651           
       3.093207              0.0106577598            0.000749831589           
       3.095847             0.00862358982             0.00064648728           
       3.098488             0.00859003659            0.000715447815           
       3.101128             0.00971709558            0.000765830631           
       3.103768               0.010623969            0.000785704856           
       3.106409              0.0100728191            0.000814222247           
       3.109049              0.0079250853            0.000693078623           
       3.111690             0.00864107896            0.000711286079           
       3.114330              0.0072598689            0.000665835101           
       3.116970             0.00849314897            0.000725701583           
       3.119611              0.0132874558            0.000966191849           
       3.122251              0.0194778482             0.00122365381           
       3.124891              0.0344354656             0.00164216829           
       3.127532              0.0250678859             0.00137069754           
       3.130172              0.0153653731             0.00109167805           
       3.132813             0.00839058932            0.000794181496           
       3.135453             0.00794333406            0.000766359883           
       3.138093             0.00659939185             0.00075687891           
       3.140734             0.00650944604            0.000693504173           
       3.143374             0.00835034962            0.000830668473           
       3.146014              0.0050630256            0.000696326447           
       3.148655             0.00652787625            0.000734998481           
       3.151295             0.00666445549            0.000791407174           
       3.153936             0.00665883405             0.00076415298           
       3.156576             0.00631747513            0.000734184399           
       3.159216             0.00585942247            0.000710603965           
       3.161857             0.00519278139            0.000666237618           
       3.164497             0.00753128211            0.000843038137           
       3.167138               0.007150572            0.000848762284           
       3.169778             0.00494509883             0.00069419481           
       3.172418             0.00582554698            0.000745799574           
       3.175059             0.00644979925            0.000695706968           
       3.177699             0.00562026926            0.000687706243           
       3.180339             0.00569850106            0.000741934331           
       3.182980             0.00587799977            0.000779072349           
       3.185620             0.00631298652            0.000822252444           
       3.188261             0.00644654068            0.000845732289           
       3.190901              0.0060099929            0.000751030074           
       3.193541             0.00579630053            0.000774994901           
       3.196182             0.00620165101            0.000835419412           
       3.198822             0.00686930917             0.00087953469           
       3.201463             0.00585823325            0.000798237788           
       3.204103             0.00439858253            0.000687471907           
       3.206743             0.00613211252            0.000811638942           
       3.209384             0.00551413526            0.000831547337           
       3.212024             0.00533411137            0.000762502627           
       3.214664             0.00521891199            0.000857660036           
       3.217305              0.0040390379            0.000717212466           
       3.219945             0.00498700895            0.000820263218           
       3.222586             0.00538293695            0.000811708734           
       3.225226             0.00587428852            0.000940664035           
       3.227866             0.00514720751             0.00080479295           
       3.230507             0.00567709696            0.000876146121           
       3.233147             0.00592995347            0.000902675827           
       3.235787             0.00443094294            0.000798526021           
       3.238428             0.00518213929            0.000931896996           
       3.241068             0.00743003911             0.00104338265           
       3.243709             0.00689419391             0.00103838146           
       3.246349             0.00363579997             0.00068741066           
       3.248989             0.00490313172            0.000942586147           
       3.251630             0.00537519205            0.000950375543           
       3.254270             0.00616504159            0.000909645209           
       3.256911             0.00494545292            0.000888947251           
       3.259551             0.00555239855             0.00101405914           
       3.262191             0.00714246255             0.00117480041           
       3.264832             0.00441230589            0.000964776983           
       3.267472              0.0066655111             0.00111240638           
       3.270112             0.00567602077             0.00113443886           
       3.272753             0.00492875605             0.00096761491           
       3.275393             0.00731377112              0.0012026882           
       3.278034             0.00514080385             0.00100888653           
       3.280674              0.0051218419             0.00109276104           
       3.283314             0.00598679029             0.00105661983           
       3.285955             0.00617091481             0.00110683732           
       3.288595             0.00690322883              0.0013024162           
       3.291235             0.00465558295             0.00109951255           
       3.293876             0.00585529169             0.00125078823           
       3.296516             0.00589199926             0.00120454281           
       3.299157              0.0069643919             0.00129312632           
       3.301797             0.00622584815             0.00139464691           
       3.304437             0.00352538444             0.00090923706           
       3.307078             0.00423676365             0.00109799356           
       3.309718             0.00730655384             0.00148831298           
       3.312359             0.00546669299             0.00128766672           
       3.314999             0.00350940036             0.00101580281           
       3.317639             0.00702520497             0.00137452179           
       3.320280             0.00820926415             0.00157976255           
       3.322920             0.00441222329             0.00117765262           
       3.325560             0.00441920496             0.00117938469           
       3.328201             0.00482319867             0.00110966741           
       3.330841             0.00677522106             0.00160066289           
       3.333482             0.00338788058             0.00106989089           
       3.336122             0.00878571035             0.00172370711           
       3.338762             0.00768881094             0.00186270826           
       3.341403             0.00741111711             0.00174745485           
       3.344043             0.00636770258             0.00155512052           
       3.346683             0.00471797429             0.00136660032           
       3.349324             0.00603280601             0.00173746808           
       3.351964             0.00388078269             0.00147360767           
       3.354605              0.0109998608             0.00283733109           
       3.357245              0.0064530814             0.00196045895           
       3.359885              0.0045844256             0.00132251991           
       3.362526             0.00295224579             0.00132719349           
       3.365166             0.00794850036             0.00205400463           
       3.367807             0.00783876453              0.0026104996           
       3.370447             0.00417727538             0.00158077478           
       3.373087             0.00401357401             0.00165697646           
       3.375728             0.00611285374             0.00230787315           
       3.378368            -2.5632802e-05                         0           
       3.381008             0.00425596738             0.00213077264           
       3.383649             0.00542389837             0.00192964846           
       3.386289             0.00382844987             0.00191873258           
       3.388930             0.00241421639             0.00241009621           
       3.391570             0.00601059815               0.002690095           
       3.394210              0.0135750623             0.00511622522           
       3.396851              0.0047755637             0.00339441436           
       3.399491           -2.57938198e-05                         0           
       3.402131             0.00949871302             0.00677490949           
       3.404772              0.0188927862               0.013515711           
       3.407412                       nan                       nan           
       3.410053              0.0181205768              0.0132529048           
       3.412693                       nan                       nan           
       3.415333             0.00878953581             0.00923894981           
