################################################################################
# EDF_DataBlockID                     0.Image.Psd
# EDF_BinarySize                      2105344
# EDF_HeaderSize                      2560
# ByteOrder                           LowByteFirst
# DataType                            FloatValue
# Dim_1                               512
# Dim_2                               1028
# Image                               0
# HeaderID                            EH:000000:000000:000000
# Size                                2105344
# Center_1                            304.9000
# Center_2                            588.7000
# Comment                             Xenocs_Cell_Window - 20251028_20perc_iodine_1.23mg
# DDummy                              0.6
# Date                                2025-11-01T13:32:00
# Delta                               21.910000
# Dummy                               -1.5
# ExposureTime                        360
# Gamma                               15.360000
# Intensity1                          8.60954e-10
# PSize_1                             7.5e-05
# PSize_2                             7.5e-05
# Pressure                            0.0325327
# SampleDistance                      0.115750
# SampleEnvKind                       large
# SampleEnvPN                         ElectroChemical cell
# SampleEnvSN                         1141
# Thickness                           0
# Wavelength                          1.541891e-10
# Wavelength                          1.54189e-10
# aux                                 0
# aux_dial                            0.002375
# beamx                               588.434
# beamx_dial                          588.434
# beamz                               657.808
# beamz_dial                          657.808
# det0x                               0
# det0x_dial                          6.36945
# det0xvd                             0
# det0xvd_dial                        0
# det0y                               450.002
# det0y_dial                          481.635
# det0z                               0
# det0z_dial                          1.23302
# det0zvd                             0
# det0zvd_dial                        0
# mag                                 1.818
# mag_dial                            1.818
# om                                  0.2499
# om_dial                             -0.610199
# phi                                 -0.0120535
# phi_dial                            0
# ry                                  0.599993
# ry_dial                             0.599993
# s1bot                               0.8
# s1bot_dial                          -1.66094
# s1hl                                0.8
# s1hl_dial                           -0.608437
# s1hr                                0.8
# s1hr_dial                           0.970938
# s1top                               0.8
# s1top_dial                          -0.461562
# s2bot                               0.45
# s2bot_dial                          1.36109
# s2hl                                0.45
# s2hl_dial                           -0.83375
# s2hr                                0.45
# s2hr_dial                           -0.118594
# s2top                               0.45
# s2top_dial                          1.44734
# w2theta                             32
# w2theta_dial                        32
# waxsch                              19.2605
# waxsch_dial                         -32.7355
# waxsh                               137.085
# waxsh_dial                          -43.5338
# waxsth                              26.0607
# waxsth_dial                         -19.4086
# waxsz                               67.0407
# waxsz_dial                          -23.7954
# wind                                65.9854
# wind_dial                           66.0041
# wpsi                                124
# wpsi_dial                           124
# wstod                               115
# wstod_dial                          115
# x                                   0
# x_dial                              1.00969
# z                                   0
# z_dial                              13.3172
# CountCutoff                         6807993
# DetectorModel                       Dectris EIGER2 Si 500K, S/N E-01-0554
# ThresholdSetting                    4023.88989258
# Saturation                          0
# FlatField                           Corrected
# BackgroundReductionExtra            0.02
# BackgroundCorrectionConstant        0.0026712
# Detector                            0
# Monitor                             0
# Pil_Roi0                            0
# SumForIntensity1                    3.09943e+08
# TransmittedFlux                     860954
# det                                 0
# mon                                 0
# pilai0                              3.09943e+08
# pilai1                              783516
# pilct0                              5.36559e+08
# pilct1                              783516
# pilroi0                             0
# pilroi1                             0
# sec                                 1
# title                               20251028_20perc_iodine_1.23mg_1_00865.edf
# usaxs0                              0
# Operation                           Azimuthal average I(q)
# Error_model                         ErrorModel.poisson
# Geometrical_correction              True
# Transmission_correction             True
# Thickness_correction                False
# Binning mode                        Uniform
# Binning factor                      1.0
# Psi                                 0.0
# Omega                               0.2499
# MaskInvalidPixels                   True
# DetectorEdge                        3
# MaskFiles                           ['WAXS_corrected.edf']
################################################################################
    q(A⁻¹)                Intensity(a.u.)            Sigma_I(a.u.)            
       0.693100             0.00821202191             0.00602072989           
       0.695741              0.0167249625             0.00701155572           
       0.698381             0.00850731609             0.00612549169           
       0.701021              0.0175340255              0.0124319047           
       0.703662           -2.35342472e-05                         0           
       0.706302             0.00497951109             0.00296064833           
       0.708942             0.00859951987             0.00502171001           
       0.711583             0.00214109736             0.00216979413           
       0.714223             0.00290180058             0.00291631225           
       0.716864              0.0173477903             0.00466544536           
       0.719504             0.00585402732              0.0029245985           
       0.722144              0.0137351472             0.00414860759           
       0.724785              0.0047725683              0.0019507121           
       0.727425              0.0029277429             0.00206691976           
       0.730065             0.00792706666             0.00240577286           
       0.732706              0.0055534453             0.00169094063           
       0.735346             0.00612881526             0.00231557839           
       0.737987             0.00999220455             0.00208929109           
       0.740627             0.00581761792             0.00237863264           
       0.743267             0.00563991556             0.00156867595           
       0.745908             0.00515694049             0.00162742776           
       0.748548               0.010472856             0.00213772905           
       0.751189             0.00716098073             0.00238189644           
       0.753829             0.00601890497             0.00200733784           
       0.756469             0.00693588618             0.00173758498           
       0.759110             0.00478050463             0.00152020614           
       0.761750             0.00830354676             0.00177156908           
       0.764390              0.0094517762             0.00197828316           
       0.767031             0.00647757851             0.00141819923           
       0.769671             0.00674174274             0.00180481058           
       0.772312             0.00925553049               0.001609895           
       0.774952             0.00355624212              0.0013475729           
       0.777592             0.00595449757             0.00127009545           
       0.780233             0.00869897546             0.00185213067           
       0.782873             0.00827228666             0.00172740029           
       0.785513              0.0061619156             0.00159382946           
       0.788154             0.00717199903             0.00143842743           
       0.790794             0.00653018721             0.00164092865           
       0.793435             0.00761433122             0.00159181642           
       0.796075             0.00369281391             0.00106787882           
       0.798715             0.00599928023             0.00160844265           
       0.801356             0.00789655218             0.00158822006           
       0.803996             0.00796986112             0.00162670954           
       0.806637             0.00776889043              0.0012781339           
       0.809277             0.00640581922              0.0012562195           
       0.811917             0.00623659231             0.00115874938           
       0.814558             0.00922367788             0.00146459572           
       0.817198             0.00925228716             0.00139359085           
       0.819838               0.010523341             0.00150417986           
       0.822479             0.00773209973             0.00151405193           
       0.825119             0.00600357341             0.00113550927           
       0.827760             0.00688312975              0.0012316054           
       0.830400             0.00739215786             0.00120126667           
       0.833040             0.00705210841             0.00122926909           
       0.835681             0.00665310648             0.00135735922           
       0.838321             0.00722457893             0.00118719634           
       0.840961             0.00501504511             0.00107770449           
       0.843602             0.00695660111             0.00116399067           
       0.846242             0.00599591496             0.00108047295           
       0.848883             0.00753300375             0.00123935874           
       0.851523             0.00553777685             0.00104942677           
       0.854163              0.0053882088             0.00110084404           
       0.856804             0.00671416895             0.00110490682           
       0.859444             0.00938133868             0.00127968292           
       0.862085             0.00759390666             0.00119998171           
       0.864725             0.00856855094             0.00130448696           
       0.867365             0.00581630064            0.000996610303           
       0.870006             0.00743681939              0.0010738743           
       0.872646             0.00802060001             0.00116946981           
       0.875286             0.00787596902             0.00111491201           
       0.877927             0.00794500966             0.00108054321           
       0.880567             0.00695197637             0.00104717036           
       0.883208             0.00757588034             0.00108285152           
       0.885848             0.00781096123             0.00114163647           
       0.888488             0.00849296334             0.00111655335           
       0.891129             0.00742546523             0.00107199774           
       0.893769             0.00694585254            0.000992244173           
       0.896410             0.00831745037             0.00101234852           
       0.899050             0.00624378273            0.000964593136           
       0.901690             0.00759203166             0.00115862535           
       0.904331             0.00750647163             0.00102138072           
       0.906971              0.0092842166              0.0012084168           
       0.909611               0.006631742             0.00092971973           
       0.912252             0.00944019734               0.001145737           
       0.914892             0.00663216541              0.0010494398           
       0.917533             0.00770671763             0.00107017312           
       0.920173             0.00713888826            0.000955631735           
       0.922813             0.00716342514             0.00100454977           
       0.925454             0.00845187819            0.000982557869           
       0.928094             0.00712110288             0.00096284713           
       0.930734             0.00816929315             0.00111028532           
       0.933375             0.00857853286             0.00112657045           
       0.936015             0.00656916539            0.000895354613           
       0.938656             0.00704152263            0.000994437152           
       0.941296              0.0063337013            0.000854738002           
       0.943936             0.00708095335            0.000886270593           
       0.946577             0.00875300235            0.000978854791           
       0.949217             0.00879324038            0.000902212395           
       0.951858             0.00819638908            0.000911820786           
       0.954498             0.00693260051            0.000970645548           
       0.957138             0.00876708141             0.00103408581           
       0.959779             0.00650685474            0.000878215284           
       0.962419             0.00829595207              0.0009850315           
       0.965059             0.00671481715            0.000932055573           
       0.967700             0.00677052677            0.000958561655           
       0.970340             0.00701071796            0.000863147012           
       0.972981             0.00553640797             0.00069884632           
       0.975621             0.00829224268             0.00090986075           
       0.978261             0.00857494396             0.00087914106           
       0.980902             0.00731578679            0.000971556441           
       0.983542             0.00656222326            0.000814861021           
       0.986182             0.00819184278            0.000893859289           
       0.988823             0.00856278637            0.000887372392           
       0.991463             0.00805526511            0.000918248501           
       0.994104             0.00944511888            0.000969969665           
       0.996744             0.00767617868            0.000891915565           
       0.999384             0.00946777792             0.00088588068           
       1.002025             0.00816768776            0.000918367205           
       1.004665             0.00682302731            0.000767083708           
       1.007306             0.00811265466            0.000832160373           
       1.009946             0.00871991426            0.000879877562           
       1.012586              0.0073207154            0.000785191508           
       1.015227             0.00680379811            0.000813215036           
       1.017867             0.00862092833            0.000879754195           
       1.020507              0.0077778874            0.000809423325           
       1.023148             0.00596705166            0.000764992606           
       1.025788             0.00806989902            0.000815724257           
       1.028429             0.00778893939            0.000839596659           
       1.031069             0.00827645383             0.00081444367           
       1.033709             0.00823779778            0.000863731459           
       1.036350               0.009851832            0.000848348157           
       1.038990             0.00871074907            0.000812365915           
       1.041630             0.00799278673            0.000811636501           
       1.044271             0.00844590341            0.000784652821           
       1.046911             0.00717406172            0.000760674613           
       1.049552             0.00729941387            0.000806137028           
       1.052192             0.00676132347            0.000708454239           
       1.054832             0.00786375867            0.000770981375           
       1.057473             0.00772087184            0.000753088268           
       1.060113             0.00895057027            0.000790794763           
       1.062754             0.00808032008            0.000767133513           
       1.065394             0.00788390001            0.000801139994           
       1.068034             0.00944645168             0.00079789944           
       1.070675             0.00881220397            0.000803880585           
       1.073315             0.00860954732            0.000805972595           
       1.075955             0.00920002192            0.000786543672           
       1.078596             0.00889972384            0.000822183732           
       1.081236             0.00758150442            0.000726652368           
       1.083877              0.0082011643            0.000748985272           
       1.086517             0.00832197389            0.000809025153           
       1.089157             0.00856621807             0.00085168385           
       1.091798             0.00994174946             0.00080440438           
       1.094438             0.00938336255            0.000778965616           
       1.097078             0.00916819472             0.00073849418           
       1.099719             0.00889558375            0.000786828904           
       1.102359             0.00940274662            0.000757589199           
       1.105000             0.00962690356            0.000857170502           
       1.107640              0.0104702352            0.000854739713           
       1.110280                0.00794261            0.000679256582           
       1.112921             0.00844232561            0.000752272165           
       1.115561             0.00854523322            0.000719316079           
       1.118202              0.0090359244            0.000740377364           
       1.120842             0.00924087177             0.00078691659           
       1.123482             0.00841774672            0.000747771946           
       1.126123             0.00897870405            0.000740751511           
       1.128763             0.00842141787            0.000722313656           
       1.131403             0.00912346699            0.000724441785           
       1.134044             0.00909223198            0.000744175207           
       1.136684              0.0102653035            0.000843050676           
       1.139325             0.00969960497            0.000754915263           
       1.141965             0.00917231461            0.000738962288           
       1.144605             0.00870769423            0.000686525122           
       1.147246              0.0088225772            0.000707218681           
       1.149886             0.00845441115            0.000689847679           
       1.152527             0.00872816977            0.000711120419           
       1.155167             0.00902332699            0.000687725253           
       1.157807             0.00837401443            0.000710338632           
       1.160448              0.0100104605             0.00075841907           
       1.163088             0.00971352558            0.000712610209           
       1.165728              0.0100944733            0.000745859431           
       1.168369             0.00890740956            0.000707106307           
       1.171009             0.00988718398            0.000722984038           
       1.173650             0.00845270891            0.000686022932           
       1.176290             0.00978727711            0.000721382974           
       1.178930             0.00821642549             0.00064780281           
       1.181571             0.00998332602            0.000728227257           
       1.184211             0.00881895956            0.000686870841           
       1.186851             0.00997714952            0.000714280606           
       1.189492                0.00882738            0.000667344264           
       1.192132             0.00940663181            0.000681162544           
       1.194773              0.0106550018            0.000728121512           
       1.197413             0.00863371856            0.000627994339           
       1.200053             0.00874607673            0.000648127321           
       1.202694             0.00924895572            0.000633803191           
       1.205334             0.00906569731            0.000676240734           
       1.207975             0.00973292132            0.000668822834           
       1.210615             0.00905210732            0.000711552156           
       1.213255              0.0100474466            0.000671296172           
       1.215896               0.010076138            0.000684434528           
       1.218536             0.00916821394            0.000627763188           
       1.221176             0.00953816327            0.000696141237           
       1.223817             0.00967045621            0.000657995819           
       1.226457              0.0095322825            0.000666439233           
       1.229098               0.010443257            0.000697523634           
       1.231738              0.0105878109            0.000705791185           
       1.234378              0.0103497738            0.000655699462           
       1.237019              0.0107516515            0.000688685586           
       1.239659             0.00982941101            0.000652750834           
       1.242299             0.00970538747            0.000640378888           
       1.244940              0.0104230766            0.000645425529           
       1.247580              0.0103574254            0.000663065661           
       1.250221              0.0103301556            0.000658106237           
       1.252861              0.0101375068            0.000620650764           
       1.255501              0.0105316587            0.000686884138           
       1.258142              0.0100338511            0.000630011733           
       1.260782              0.0106874203            0.000664275105           
       1.263423             0.00979264829            0.000610989689           
       1.266063               0.010551292            0.000650052369           
       1.268703              0.0101469522            0.000632185449           
       1.271344              0.0108094628            0.000674610948           
       1.273984              0.0115545374            0.000673621653           
       1.276624             0.00985492059            0.000610421499           
       1.279265              0.0100476087            0.000626595862           
       1.281905             0.00995969798            0.000626617402           
       1.284546              0.0101920146            0.000612705799           
       1.287186              0.0106301123             0.00061391307           
       1.289826              0.0107857548            0.000651733578           
       1.292467              0.0109974313            0.000643602677           
       1.295107              0.0103285785            0.000617528227           
       1.297747              0.0104512426            0.000594421823           
       1.300388              0.0110346752            0.000665836119           
       1.303028              0.0104343039            0.000618113244           
       1.305669              0.0106259415            0.000638615972           
       1.308309               0.011213569            0.000649576069           
       1.310949              0.0104349551             0.00062598901           
       1.313590              0.0109503553            0.000621216896           
       1.316230              0.0110202662            0.000665037494           
       1.318871              0.0102255103            0.000627397205           
       1.321511              0.0111885266            0.000644111759           
       1.324151              0.0108432467            0.000615296585           
       1.326792              0.0109541809            0.000622259457           
       1.329432              0.0107403489            0.000611807998           
       1.332072              0.0123316835             0.00064579713           
       1.334713              0.0105286022            0.000615873821           
       1.337353              0.0117473842            0.000623885098           
       1.339994              0.0112957668            0.000641997152           
       1.342634              0.0119031715            0.000631970424           
       1.345274              0.0110275042            0.000629513344           
       1.347915              0.0111947101            0.000616752694           
       1.350555              0.0102763352            0.000601262458           
       1.353195              0.0107004923            0.000616559013           
       1.355836              0.0111762484            0.000620290934           
       1.358476              0.0117398071             0.00061739772           
       1.361117              0.0100540038            0.000572136661           
       1.363757              0.0110133462            0.000617095609           
       1.366397              0.0109536867            0.000596798517           
       1.369038              0.0102099915            0.000581919954           
       1.371678              0.0109389711            0.000597025738           
       1.374319               0.011367616            0.000603369945           
       1.376959              0.0111438292            0.000591393557           
       1.379599              0.0118870267            0.000654588048           
       1.382240              0.0117209983            0.000610902985           
       1.384880              0.0112495768            0.000633938565           
       1.387520              0.0110222584            0.000595956994           
       1.390161               0.010967646            0.000564612009           
       1.392801              0.0106755683            0.000580385052           
       1.395442              0.0110666168            0.000598989872           
       1.398082              0.0114258396            0.000569959084           
       1.400722              0.0129002694            0.000634371289           
       1.403363               0.011560739             0.00063213402           
       1.406003               0.011523501            0.000590638986           
       1.408644              0.0117136147            0.000623815764           
       1.411284              0.0115681378            0.000587018642           
       1.413924              0.0111676367            0.000574629304           
       1.416565              0.0106771999            0.000559662875           
       1.419205              0.0105843951            0.000581274914           
       1.421845              0.0107350409            0.000585053154           
       1.424486              0.0118100436             0.00058985665           
       1.427126              0.0103441108             0.00057345853           
       1.429767              0.0116941953            0.000573685832           
       1.432407              0.0113691797            0.000591973747           
       1.435047              0.0104031204             0.00053181679           
       1.437688              0.0110976066            0.000557494122           
       1.440328              0.0102392698            0.000546538677           
       1.442968              0.0109610508             0.00057814358           
       1.445609              0.0103955397            0.000545171184           
       1.448249               0.011327832            0.000583501418           
       1.450890              0.0112500177            0.000577698451           
       1.453530              0.0106380416            0.000587720214           
       1.456170              0.0113997954            0.000590465262           
       1.458811              0.0114441079            0.000565711741           
       1.461451              0.0110899666            0.000558350757           
       1.464092               0.011436594            0.000570716517           
       1.466732               0.011319947            0.000562919322           
       1.469372              0.0104278283            0.000527638225           
       1.472013               0.010895122            0.000581679235           
       1.474653              0.0106572524            0.000566419742           
       1.477293              0.0108550498            0.000583700435           
       1.479934              0.0115183245            0.000573736165           
       1.482574              0.0114223432            0.000552682877           
       1.485215              0.0110956929            0.000554868474           
       1.487855              0.0117892481            0.000579492062           
       1.490495              0.0116969133            0.000575092431           
       1.493136              0.0119509105            0.000573335081           
       1.495776              0.0106255974            0.000538149196           
       1.498416              0.0113056011             0.00057326343           
       1.501057              0.0112506273            0.000559264855           
       1.503697              0.0107599811            0.000534715213           
       1.506338              0.0110943251             0.00055288101           
       1.508978              0.0102521025            0.000526254203           
       1.511618               0.011871919            0.000603110915           
       1.514259              0.0117443121            0.000579137549           
       1.516899             0.00963702622            0.000510799632           
       1.519540              0.0110969321            0.000556965091           
       1.522180             0.00986762069            0.000529823393           
       1.524820              0.0107046626             0.00054874167           
       1.527461               0.012053412            0.000585165936           
       1.530101              0.0111432948            0.000557013306           
       1.532741              0.0104295914            0.000535753097           
       1.535382               0.011774269            0.000578407542           
       1.538022              0.0107023839              0.0005194964           
       1.540663              0.0115472467            0.000580385899           
       1.543303              0.0106284547            0.000517013914           
       1.545943              0.0120073471            0.000581635985           
       1.548584              0.0104813039            0.000553174438           
       1.551224              0.0102798965            0.000506524114           
       1.553864              0.0106873592            0.000545741857           
       1.556505              0.0105204718            0.000523068342           
       1.559145              0.0102651612            0.000523011766           
       1.561786              0.0102666032            0.000523451329           
       1.564426              0.0113127139            0.000532382075           
       1.567066              0.0103727446            0.000534156571           
       1.569707              0.0107390505            0.000533743331           
       1.572347              0.0107565354            0.000551858933           
       1.574988              0.0108455802            0.000527446869           
       1.577628              0.0101494905            0.000532054442           
       1.580268              0.0100906515            0.000514007669           
       1.582909             0.00967647456            0.000533529141           
       1.585549             0.00970383752            0.000518771677           
       1.588189              0.0102936853            0.000522644439           
       1.590830             0.00996900107            0.000513690202           
       1.593470              0.0102270511            0.000540897813           
       1.596111             0.00838815334            0.000478256875           
       1.598751              0.0104473144            0.000517176911           
       1.601391             0.00943937516            0.000502442055           
       1.604032             0.00868174808            0.000491930047           
       1.606672             0.00999912808            0.000512939411           
       1.609312              0.0105929158            0.000551118015           
       1.611953              0.0100311298            0.000524807785           
       1.614593             0.00976690896             0.00050796976           
       1.617234             0.00956906838            0.000521088844           
       1.619874             0.00920833096             0.00050915315           
       1.622514             0.00908694804            0.000498886556           
       1.625155             0.00892400862            0.000497314146           
       1.627795             0.00956329893            0.000502205152           
       1.630436             0.00910294086            0.000487410046           
       1.633076              0.0095610847            0.000506076435           
       1.635716              0.0088548325            0.000479448909           
       1.638357             0.00918475994            0.000489586339           
       1.640997             0.00978461533              0.0005206281           
       1.643637              0.0091818133            0.000490775757           
       1.646278             0.00902299757            0.000501799106           
       1.648918             0.00996203808             0.00052870288           
       1.651559             0.00913617558            0.000510243581           
       1.654199               0.008196764            0.000470051434           
       1.656839             0.00817320751            0.000469539356           
       1.659480             0.00885566976            0.000507103095           
       1.662120             0.00906841262            0.000483310397           
       1.664761             0.00889689963            0.000497264539           
       1.667401             0.00857988077             0.00046673394           
       1.670041             0.00866086006            0.000476081494           
       1.672682             0.00916604997            0.000487756647           
       1.675322             0.00912114262            0.000483431526           
       1.677962             0.00921776162            0.000480624202           
       1.680603             0.00889797562            0.000473666735           
       1.683243             0.00922443817            0.000503166907           
       1.685884             0.00880234662            0.000495149866           
       1.688524             0.00846110617             0.00047607331           
       1.691164             0.00891619918            0.000488819706           
       1.693805             0.00871196114            0.000488496741           
       1.696445             0.00869706515            0.000490910146           
       1.699085             0.00839416698            0.000466125283           
       1.701726              0.0085027227            0.000451924506           
       1.704366             0.00896823169            0.000488948966           
       1.707007             0.00859254469            0.000467929688           
       1.709647             0.00859635078            0.000473318851           
       1.712287             0.00909352967            0.000491051261           
       1.714928             0.00889869777            0.000489678813           
       1.717568             0.00863698003            0.000454445467           
       1.720209             0.00885921582            0.000482085126           
       1.722849             0.00814090806              0.0004597524           
       1.725489             0.00784229681            0.000451620594           
       1.728130             0.00798522086            0.000484299842           
       1.730770             0.00870627678            0.000480272612           
       1.733410             0.00852165071            0.000467684029           
       1.736051             0.00983885385            0.000506028929           
       1.738691             0.00836801996            0.000457214797           
       1.741332             0.00862513109            0.000477758814           
       1.743972             0.00807024857            0.000477233362           
       1.746612             0.00814886673             0.00046049243           
       1.749253             0.00784922152            0.000460871877           
       1.751893             0.00813107138            0.000465630312           
       1.754533             0.00891191065            0.000487020229           
       1.757174             0.00923107807            0.000491022839           
       1.759814             0.00819824074            0.000455724471           
       1.762455             0.00768973253            0.000449469128           
       1.765095              0.0089825586            0.000464712606           
       1.767735             0.00899145042            0.000479286029           
       1.770376             0.00831221006            0.000462042112           
       1.773016             0.00784824483            0.000445954723           
       1.775657             0.00840752783            0.000454929769           
       1.778297             0.00809709505            0.000442607706           
       1.780937             0.00894438722            0.000491007059           
       1.783578             0.00865572552            0.000470941439           
       1.786218             0.00833345435            0.000482242724           
       1.788858             0.00837995472            0.000459290302           
       1.791499             0.00860231515             0.00046011775           
       1.794139             0.00856585842             0.00045541662           
       1.796780             0.00881904721            0.000459870454           
       1.799420             0.00803452886            0.000436508979           
       1.802060             0.00937368176             0.00047529354           
       1.804701             0.00905006459            0.000448170722           
       1.807341             0.00892126059             0.00046756671           
       1.809981             0.00880869921            0.000466156675           
       1.812622              0.0101611536            0.000491651737           
       1.815262             0.00846896532            0.000458384627           
       1.817903             0.00869103056            0.000457475111           
       1.820543             0.00858580715            0.000461782532           
       1.823183             0.00873960307            0.000465643958           
       1.825824             0.00906951353            0.000453176037           
       1.828464             0.00855475252            0.000458852117           
       1.831105             0.00766714744             0.00042238598           
       1.833745             0.00842412528            0.000452202076           
       1.836385             0.00838475191            0.000464019019           
       1.839026              0.0079911973            0.000451567103           
       1.841666             0.00823092839            0.000456665357           
       1.844306             0.00828460203             0.00044565099           
       1.846947             0.00877535578            0.000462681078           
       1.849587             0.00863272297            0.000506742933           
       1.852228             0.00855493584            0.000456152062           
       1.854868             0.00726886357            0.000444163866           
       1.857508             0.00831800587            0.000470477691           
       1.860149             0.00913306179             0.00050194636           
       1.862789             0.00760268978            0.000442042601           
       1.865429             0.00909777691            0.000504760056           
       1.868070             0.00811278074            0.000470299919           
       1.870710              0.0078484248            0.000451909618           
       1.873351             0.00927746128            0.000497405824           
       1.875991             0.00853472941            0.000484865998           
       1.878631             0.00822559341            0.000466887331           
       1.881272             0.00775741585            0.000450367786           
       1.883912              0.0080087396            0.000476233828           
       1.886553             0.00791301132             0.00046808668           
       1.889193              0.0075840794            0.000457471589           
       1.891833             0.00805326691            0.000489577609           
       1.894474             0.00751558485            0.000468832876           
       1.897114               0.007801374            0.000462225168           
       1.899754             0.00888334633            0.000495301529           
       1.902395             0.00752790231            0.000447036804           
       1.905035             0.00754856125            0.000474136154           
       1.907676             0.00787737919            0.000456503984           
       1.910316             0.00825135754            0.000479619938           
       1.912956             0.00860494876            0.000479013189           
       1.915597              0.0086731379            0.000483595118           
       1.918237              0.0078830384            0.000476144329           
       1.920878             0.00739642585            0.000459326235           
       1.923518             0.00731190537             0.00045688806           
       1.926158             0.00799862057            0.000471660575           
       1.928799              0.0089333921             0.00049269009           
       1.931439             0.00852186051            0.000493829595           
       1.934079              0.0075187272            0.000483557229           
       1.936720              0.0089216487            0.000488042132           
       1.939360             0.00802679765            0.000493871053           
       1.942001             0.00864824031            0.000469854117           
       1.944641             0.00755295068             0.00044774315           
       1.947281             0.00759174053            0.000444753764           
       1.949922             0.00774302974            0.000463946122           
       1.952562             0.00798125603            0.000485793765           
       1.955202             0.00739990594             0.00046719663           
       1.957843              0.0080771927            0.000475450938           
       1.960483             0.00813228759             0.00049877575           
       1.963124             0.00792143529            0.000482168137           
       1.965764             0.00777037393            0.000450341657           
       1.968404             0.00761733026            0.000441671792           
       1.971045             0.00726787443            0.000439857101           
       1.973685             0.00720450773            0.000459361546           
       1.976326             0.00758209087             0.00046476857           
       1.978966             0.00838126003            0.000492937198           
       1.981606              0.0085486048             0.00050821665           
       1.984247             0.00754482696            0.000474308828           
       1.986887             0.00683346748            0.000445988212           
       1.989527             0.00726380833            0.000454865031           
       1.992168             0.00796062746            0.000494080363           
       1.994808             0.00723146988            0.000468890674           
       1.997449             0.00806961779            0.000485146644           
       2.000089              0.0080781249             0.00048347784           
       2.002729             0.00712000924            0.000454173577           
       2.005370             0.00813158186            0.000480143339           
       2.008010             0.00719073633            0.000471218332           
       2.010650             0.00836242673              0.0005119532           
       2.013291             0.00764675062            0.000469702085           
       2.015931             0.00826521626            0.000484875512           
       2.018572             0.00686062771            0.000472502657           
       2.021212             0.00790048931            0.000497938294           
       2.023852             0.00865388492            0.000493234099           
       2.026493             0.00737529234            0.000475685123           
       2.029133              0.0067936815             0.00044735639           
       2.031774             0.00746375391            0.000492099537           
       2.034414              0.0081057993            0.000471873539           
       2.037054             0.00813394067            0.000484673132           
       2.039695              0.0081103725            0.000480315233           
       2.042335             0.00795276507            0.000494279203           
       2.044975             0.00697950382            0.000457431993           
       2.047616             0.00749654743            0.000472895031           
       2.050256             0.00758832779            0.000480283639           
       2.052897             0.00680450344            0.000463187183           
       2.055537             0.00877925197            0.000508477624           
       2.058177             0.00819085989              0.0004809613           
       2.060818             0.00752445977            0.000482913326           
       2.063458             0.00776683141             0.00051128445           
       2.066098             0.00809102035            0.000492275513           
       2.068739             0.00717550925            0.000470794835           
       2.071379             0.00717881911            0.000483184717           
       2.074020             0.00787095727            0.000494946163           
       2.076660             0.00808592485            0.000505714885           
       2.079300              0.0076265808            0.000503174517           
       2.081941             0.00704071925            0.000442664403           
       2.084581             0.00774705585            0.000490113521           
       2.087222             0.00757272665            0.000467319254           
       2.089862             0.00789889282            0.000519827645           
       2.092502             0.00714030136            0.000479091418           
       2.095143             0.00744225791            0.000505086132           
       2.097783             0.00703530163            0.000475450506           
       2.100423             0.00778301208            0.000481871246           
       2.103064             0.00804754678             0.00050843246           
       2.105704             0.00731708966            0.000482407649           
       2.108345              0.0072268202            0.000460597048           
       2.110985             0.00810936338            0.000521124611           
       2.113625             0.00699067628            0.000488068982           
       2.116266             0.00750436008            0.000512857556           
       2.118906              0.0069698442            0.000460618383           
       2.121546             0.00745595395            0.000467314373           
       2.124187             0.00738893618            0.000488326201           
       2.126827             0.00702995876             0.00048163236           
       2.129468             0.00787133487            0.000510941741           
       2.132108             0.00662032805            0.000455896037           
       2.134748             0.00721729864            0.000474160262           
       2.137389              0.0077292141            0.000511909524           
       2.140029             0.00701768767            0.000436688988           
       2.142670               0.007547747            0.000484003447           
       2.145310             0.00726917557            0.000462314041           
       2.147950             0.00725744836            0.000475463142           
       2.150591             0.00754937657            0.000480030782           
       2.153231             0.00640558901            0.000455149258           
       2.155871             0.00757333464            0.000478106779           
       2.158512             0.00756324393            0.000498538063           
       2.161152             0.00692714237            0.000462161498           
       2.163793             0.00705959036            0.000464458476           
       2.166433             0.00828580654            0.000516714238           
       2.169073             0.00767856555            0.000486345561           
       2.171714             0.00795527198            0.000491330439           
       2.174354             0.00755939241            0.000500457843           
       2.176995             0.00683207642            0.000473771738           
       2.179635              0.0075355461            0.000525784894           
       2.182275             0.00721163939            0.000485638075           
       2.184916             0.00699361258            0.000461918379           
       2.187556             0.00715302598            0.000462471027           
       2.190196             0.00613557866            0.000447587639           
       2.192837             0.00729582225            0.000485420456           
       2.195477             0.00715968747            0.000458452748           
       2.198118             0.00682785437            0.000459174384           
       2.200758             0.00738350218             0.00048987852           
       2.203398             0.00738218283            0.000492968396           
       2.206039             0.00709319542            0.000457329707           
       2.208679             0.00735048097            0.000476384641           
       2.211319             0.00718166503             0.00047359749           
       2.213960             0.00779948182            0.000500161062           
       2.216600             0.00723695399            0.000498397714           
       2.219241             0.00713123478            0.000472841542           
       2.221881             0.00702503806            0.000470272536           
       2.224521             0.00651904152            0.000458570999           
       2.227162             0.00716222607             0.00047103687           
       2.229802             0.00712224013            0.000484424263           
       2.232443             0.00839802828            0.000517727893           
       2.235083              0.0075182022            0.000504307116           
       2.237723             0.00708365614            0.000469761606           
       2.240364             0.00717071978            0.000484283489           
       2.243004             0.00727920311            0.000484038086           
       2.245644             0.00723353166            0.000487346935           
       2.248285             0.00728760738            0.000479365747           
       2.250925             0.00734573031            0.000484197106           
       2.253566             0.00707548523            0.000508032643           
       2.256206             0.00620238889            0.000466145247           
       2.258846             0.00736015893            0.000483050106           
       2.261487             0.00769537201            0.000518422955           
       2.264127             0.00730795086            0.000487918524           
       2.266767             0.00762557081            0.000511687746           
       2.269408             0.00686361775            0.000487438913           
       2.272048             0.00732913802            0.000500691221           
       2.274689             0.00805297089             0.00053174893           
       2.277329             0.00684814454            0.000461705524           
       2.279969             0.00723384874            0.000505109601           
       2.282610             0.00669666592            0.000472476444           
       2.285250             0.00687589031            0.000458235694           
       2.287891              0.0084504748            0.000544654318           
       2.290531             0.00689351629             0.00049853998           
       2.293171             0.00815332163            0.000528136461           
       2.295812             0.00641182971            0.000466466671           
       2.298452             0.00709060552            0.000512970777           
       2.301092             0.00725764445            0.000482194174           
       2.303733             0.00731771118            0.000503722024           
       2.306373             0.00698963014            0.000500053645           
       2.309014             0.00701927633            0.000491337416           
       2.311654             0.00809069165            0.000550476391           
       2.314294             0.00766707237            0.000493700383           
       2.316935             0.00766892848             0.00049580007           
       2.319575             0.00679995479            0.000489167517           
       2.322215              0.0083366551            0.000564467042           
       2.324856             0.00637201065            0.000453715552           
       2.327496             0.00657209226            0.000489957921           
       2.330137             0.00736211265            0.000496233608           
       2.332777             0.00685682602             0.00049379886           
       2.335417             0.00760250188            0.000504435286           
       2.338058             0.00663703113            0.000485397402           
       2.340698             0.00779235295            0.000521817313           
       2.343339             0.00763460888            0.000527874873           
       2.345979             0.00724779034            0.000486595461           
       2.348619             0.00653637041            0.000478988764           
       2.351260             0.00735602338            0.000505173829           
       2.353900             0.00731094027            0.000502028038           
       2.356540             0.00717817203            0.000496742544           
       2.359181             0.00667755359            0.000472390813           
       2.361821             0.00752064554            0.000484267649           
       2.364462             0.00673222463            0.000479200131           
       2.367102             0.00742140157             0.00051704701           
       2.369742             0.00706700501              0.0005310744           
       2.372383             0.00688448852            0.000474636115           
       2.375023             0.00683638735            0.000497199312           
       2.377663             0.00760581792            0.000501435113           
       2.380304             0.00792929097            0.000520523797           
       2.382944             0.00793789552            0.000496051371           
       2.385585             0.00785116174            0.000526149067           
       2.388225             0.00657023877            0.000479056656           
       2.390865             0.00725836101            0.000498346417           
       2.393506             0.00783058335            0.000507852233           
       2.396146             0.00731502339            0.000530728401           
       2.398787             0.00684226244            0.000473038234           
       2.401427             0.00675678932            0.000453730136           
       2.404067             0.00729528328            0.000481980263           
       2.406708             0.00709450292            0.000469601835           
       2.409348              0.0074073078            0.000508967173           
       2.411988             0.00772407685            0.000509226387           
       2.414629             0.00689290791            0.000496030175           
       2.417269             0.00753256504            0.000524589313           
       2.419910             0.00638886383            0.000484246401           
       2.422550             0.00803509818            0.000519569153           
       2.425190             0.00613170961            0.000478434171           
       2.427831             0.00659991325            0.000493574036           
       2.430471             0.00681426595            0.000477799599           
       2.433112             0.00752371997            0.000488883311           
       2.435752             0.00657473748            0.000483661942           
       2.438392             0.00692949766            0.000479261841           
       2.441033             0.00629681077            0.000484178834           
       2.443673             0.00674906652            0.000501650306           
       2.446313             0.00713384233            0.000516206806           
       2.448954             0.00707031231            0.000489307627           
       2.451594             0.00730280155            0.000534700133           
       2.454235             0.00679588971            0.000483960301           
       2.456875               0.006938072            0.000511665871           
       2.459515             0.00670671592            0.000516085522           
       2.462156             0.00743778033            0.000513126514           
       2.464796             0.00787188885            0.000521077935           
       2.467436             0.00783116254            0.000537460055           
       2.470077              0.0076126033            0.000502255673           
       2.472717             0.00670781611            0.000473506597           
       2.475358             0.00708047904            0.000491554585           
       2.477998             0.00764520164            0.000502170157           
       2.480638             0.00781432035            0.000516715254           
       2.483279             0.00749427502            0.000528874986           
       2.485919             0.00761142731            0.000513660332           
       2.488560             0.00657589068            0.000476107567           
       2.491200             0.00768466084            0.000529987862           
       2.493840             0.00691401187            0.000531934368           
       2.496481             0.00712286153            0.000531076869           
       2.499121             0.00730801853            0.000523227885           
       2.501761             0.00727448961            0.000528942817           
       2.504402             0.00705546741            0.000513308588           
       2.507042               0.008173379            0.000548387135           
       2.509683             0.00691373857            0.000496654221           
       2.512323             0.00608584466            0.000489384409           
       2.514963             0.00709379509            0.000521831295           
       2.517604             0.00703070685            0.000539067033           
       2.520244             0.00712467135            0.000508742265           
       2.522884             0.00777321147            0.000538992191           
       2.525525              0.0119856263            0.000676883864           
       2.528165             0.00844748658            0.000559402734           
       2.530806             0.00858880328             0.00057389415           
       2.533446              0.0069392955            0.000504839207           
       2.536086             0.00695318751            0.000500821258           
       2.538727             0.00723936374            0.000490249497           
       2.541367             0.00719877319            0.000493688802           
       2.544008             0.00699453516            0.000502575302           
       2.546648             0.00699172218            0.000511093016           
       2.549288               0.007349786            0.000534694081           
       2.551929             0.00639710587            0.000490886747           
       2.554569             0.00793313248              0.0005266546           
       2.557209             0.00794208459            0.000531791073           
       2.559850             0.00679437322              0.0004934474           
       2.562490             0.00680892618            0.000510550284           
       2.565131             0.00690995746            0.000533274412           
       2.567771             0.00737032436            0.000531007957           
       2.570411             0.00699906613            0.000511862322           
       2.573052             0.00725607297             0.00052773891           
       2.575692              0.0069361534            0.000512849311           
       2.578332              0.0065007062            0.000498543338           
       2.580973             0.00645356159            0.000492006028           
       2.583613             0.00722028832            0.000508021276           
       2.586254             0.00720644321            0.000506828618           
       2.588894             0.00703579848            0.000520048539           
       2.591534             0.00692344504            0.000534032134           
       2.594175             0.00637653581              0.0005028344           
       2.596815             0.00698439149              0.0005293587           
       2.599456             0.00645966144            0.000482763324           
       2.602096              0.0067691509            0.000497953852           
       2.604736             0.00656207949            0.000501903952           
       2.607377             0.00749665792            0.000522318165           
       2.610017             0.00695102993             0.00049414975           
       2.612657             0.00703157102            0.000528639061           
       2.615298             0.00620515959            0.000484840983           
       2.617938              0.0073708182            0.000565276242           
       2.620579             0.00702649817               0.000529833           
       2.623219              0.0059276137            0.000485948185           
       2.625859             0.00753087636            0.000532554856           
       2.628500             0.00661977255            0.000496029065           
       2.631140             0.00662625827            0.000503918704           
       2.633780             0.00714682292            0.000522883701           
       2.636421             0.00710131753            0.000534034093           
       2.639061             0.00651348137            0.000481474629           
       2.641702             0.00770687348              0.0005358528           
       2.644342             0.00679658892            0.000505357222           
       2.646982             0.00684053273            0.000499408943           
       2.649623             0.00712748305            0.000534224857           
       2.652263             0.00725845094            0.000533700765           
       2.654904             0.00787090829            0.000556320384           
       2.657544             0.00724703731            0.000502800701           
       2.660184              0.0073512742            0.000535922662           
       2.662825             0.00693850691            0.000532738748           
       2.665465             0.00749060216            0.000535352803           
       2.668105             0.00764522234            0.000570076556           
       2.670746              0.0077242596            0.000529344347           
       2.673386             0.00937989894            0.000601160878           
       2.676027             0.00829261033            0.000556173899           
       2.678667             0.00985605707            0.000591636754           
       2.681307              0.0113062885            0.000622617425           
       2.683948               0.016027283            0.000761646467           
       2.686588              0.0115252859            0.000635165326           
       2.689229               0.010045947            0.000579457314           
       2.691869             0.00961316831            0.000599091848           
       2.694509             0.00879610345            0.000573381762           
       2.697150             0.00774920245            0.000529448152           
       2.699790             0.00698684451            0.000527040997           
       2.702430             0.00740955695            0.000518803932           
       2.705071             0.00642707346            0.000499280885           
       2.707711             0.00665105081            0.000492960945           
       2.710352             0.00680527952            0.000526879513           
       2.712992             0.00630030309            0.000516328181           
       2.715632             0.00662871215             0.00049137698           
       2.718273             0.00676758738            0.000514552952           
       2.720913             0.00633893581            0.000496573849           
       2.723553             0.00583583508            0.000479657616           
       2.726194             0.00757869939            0.000571387107           
       2.728834             0.00698436014            0.000548782329           
       2.731475             0.00743774236            0.000522658253           
       2.734115             0.00692659684            0.000520032866           
       2.736755             0.00739736425              0.0005418378           
       2.739396             0.00740806735            0.000539088051           
       2.742036             0.00652383679            0.000529449289           
       2.744677             0.00670714424            0.000520878927           
       2.747317             0.00785544337            0.000559687211           
       2.749957             0.00622143253            0.000501582516           
       2.752598             0.00734790421            0.000551019219           
       2.755238             0.00903191864            0.000621935122           
       2.757878             0.00796085313            0.000578790031           
       2.760519             0.00888386424            0.000604940527           
       2.763159             0.00963150891            0.000623586994           
       2.765800             0.00781313272            0.000535239648           
       2.768440             0.00847758172            0.000561641692           
       2.771080             0.00831097103            0.000560737093           
       2.773721             0.00814830556            0.000569545135           
       2.776361             0.00785395527            0.000566877571           
       2.779001             0.00775172133            0.000583225809           
       2.781642             0.00639265723            0.000525733897           
       2.784282             0.00726119524            0.000569524956           
       2.786923              0.0059931883            0.000521969105           
       2.789563             0.00676886972            0.000534260624           
       2.792203             0.00799931638            0.000554823362           
       2.794844             0.00728445241            0.000580270963           
       2.797484             0.00814415803            0.000579048868           
       2.800125             0.00727671508            0.000575531672           
       2.802765             0.00706624709            0.000557390557           
       2.805405             0.00725369076            0.000566646422           
       2.808046             0.00723089445            0.000575701025           
       2.810686             0.00773249217            0.000547042778           
       2.813326              0.0068445698             0.00053460719           
       2.815967              0.0065709364            0.000538705368           
       2.818607             0.00711104046            0.000534782764           
       2.821248             0.00724208471            0.000528483406           
       2.823888             0.00655064944            0.000521734665           
       2.826528             0.00723769578            0.000531110813           
       2.829169             0.00593668182            0.000503834219           
       2.831809              0.0061926966            0.000521582739           
       2.834449             0.00586952993            0.000511000055           
       2.837090             0.00759570402            0.000561447459           
       2.839730             0.00710564863            0.000540382603           
       2.842371             0.00730377111            0.000548655092           
       2.845011             0.00715679698            0.000547435829           
       2.847651             0.00693536205            0.000539562168           
       2.850292             0.00757844325            0.000569558541           
       2.852932             0.00696709895            0.000558004146           
       2.855573             0.00626464785            0.000513267926           
       2.858213             0.00615927315            0.000534441268           
       2.860853             0.00705703955            0.000532153284           
       2.863494             0.00691330256             0.00054533056           
       2.866134              0.0065367864            0.000551152655           
       2.868774             0.00609005757            0.000522833496           
       2.871415             0.00646898234            0.000547246901           
       2.874055             0.00710355523            0.000548156552           
       2.876696             0.00615543497             0.00052406734           
       2.879336             0.00682253154            0.000531766417           
       2.881976             0.00700322194            0.000555696013           
       2.884617             0.00722135508            0.000555996566           
       2.887257             0.00860029612            0.000609895366           
       2.889897             0.00704678463            0.000540707833           
       2.892538             0.00682303742            0.000582867535           
       2.895178             0.00796399451            0.000568908723           
       2.897819             0.00629842459            0.000516100098           
       2.900459              0.0069636655            0.000532114716           
       2.903099             0.00675777282            0.000518823582           
       2.905740             0.00616289806            0.000508280764           
       2.908380             0.00664623928            0.000533833639           
       2.911021             0.00744529483            0.000574199807           
       2.913661             0.00685482298            0.000550795119           
       2.916301             0.00639495695            0.000532506284           
       2.918942             0.00709446918            0.000536490477           
       2.921582             0.00698006335            0.000556779235           
       2.924222             0.00683186674            0.000533655035           
       2.926863             0.00638244062            0.000537268912           
       2.929503             0.00815082879            0.000614347703           
       2.932144             0.00759264891            0.000569185173           
       2.934784             0.00623795987            0.000507455533           
       2.937424             0.00813854507            0.000585579917           
       2.940065             0.00629535758            0.000491279171           
       2.942705             0.00661690527            0.000503037551           
       2.945346             0.00650750341              0.0005294185           
       2.947986             0.00680834595            0.000552160733           
       2.950626             0.00700521094            0.000556933289           
       2.953267             0.00634856463            0.000521622117           
       2.955907             0.00696046258            0.000566588623           
       2.958547             0.00743508692            0.000552824675           
       2.961188             0.00828406962            0.000608789029           
       2.963828             0.00816773909            0.000591312163           
       2.966469             0.00643559902            0.000514905875           
       2.969109             0.00717203915             0.00055162281           
       2.971749             0.00606886889            0.000504262885           
       2.974390              0.0074397904             0.00054865194           
       2.977030             0.00787976033            0.000577260602           
       2.979670             0.00935986153            0.000611963773           
       2.982311             0.00708082689            0.000551672344           
       2.984951             0.00716219622            0.000527695054           
       2.987592             0.00753032364            0.000551924064           
       2.990232             0.00695532165            0.000551645347           
       2.992872             0.00802635251             0.00055819419           
       2.995513             0.00804254323            0.000546648164           
       2.998153              0.0104368727            0.000633187694           
       3.000794              0.0122618448            0.000664769169           
       3.003434              0.0129021151            0.000682933875           
       3.006074              0.0504514534             0.00133154222           
       3.008715               0.128612032             0.00205223605           
       3.011355               0.183170409             0.00236176514           
       3.013995              0.0920227873             0.00167855952           
       3.016636              0.0629398209             0.00135937597           
       3.019276                0.13207375             0.00193566242           
       3.021917               0.511252268             0.00366193118           
       3.024557                1.68075345             0.00652791572           
       3.027197                1.12529464             0.00520759052           
       3.029838               0.516310387             0.00357747108           
       3.032478               0.258991839             0.00253632614           
       3.035118              0.0697414003              0.0013338137           
       3.037759               0.099041277             0.00158743979           
       3.040399               0.138481412             0.00193626433           
       3.043040               0.537147392             0.00386017135           
       3.045680               0.383396369             0.00306837193           
       3.048320              0.0829630308             0.00145838932           
       3.050961               0.110042227             0.00170921458           
       3.053601              0.0835264734             0.00143420072           
       3.056242               0.052402802             0.00120780042           
       3.058882              0.0472531869             0.00123030558           
       3.061522              0.0345251058             0.00103177911           
       3.064163              0.0431725926             0.00113925188           
       3.066803              0.0994200516             0.00182008737           
       3.069443                0.10071253             0.00191661565           
       3.072084              0.0534562657             0.00135966687           
       3.074724              0.0443666136             0.00138332978           
       3.077365              0.0833163367             0.00196234902           
       3.080005               0.016499099            0.000878203701           
       3.082645              0.0100174261            0.000718867651           
       3.085286              0.0136690387             0.00084635554           
       3.087926             0.00935258807             0.00069468771           
       3.090566              0.0104346795            0.000718958471           
       3.093207             0.00985650471            0.000727128203           
       3.095847             0.00852519789            0.000648167017           
       3.098488             0.00867573745            0.000725024045           
       3.101128              0.0106771893            0.000809490435           
       3.103768             0.00896646207            0.000727855808           
       3.106409             0.00848712511            0.000753644447           
       3.109049             0.00874745051            0.000734243368           
       3.111690             0.00785072565             0.00068365025           
       3.114330             0.00805295478            0.000707129053           
       3.116970             0.00795617637            0.000708263163           
       3.119611              0.0134192352            0.000979095582           
       3.122251               0.020365301              0.0012616888           
       3.124891              0.0377816923             0.00173449934           
       3.127532              0.0236209414             0.00134168367           
       3.130172              0.0129436425             0.00101034578           
       3.132813             0.00828524961            0.000795783782           
       3.135453             0.00605688518            0.000674799533           
       3.138093             0.00652679628             0.00075900254           
       3.140734             0.00683111667            0.000716377058           
       3.143374             0.00621893163            0.000722856421           
       3.146014             0.00602456033             0.00076593032           
       3.148655             0.00816458948             0.00082886999           
       3.151295             0.00687131099            0.000810319338           
       3.153936             0.00705153019            0.000792942424           
       3.156576             0.00632116577            0.000740543758           
       3.159216             0.00604323747            0.000727702396           
       3.161857             0.00623192836            0.000735968304           
       3.164497             0.00746169155            0.000846155465           
       3.167138             0.00775780926            0.000891464357           
       3.169778             0.00561896842            0.000746175395           
       3.172418             0.00582202303            0.000751812409           
       3.175059             0.00593095833            0.000672720164           
       3.177699             0.00707961231            0.000778301554           
       3.180339              0.0062860746            0.000785766792           
       3.182980             0.00619498739            0.000806495551           
       3.185620             0.00750912744            0.000904276476           
       3.188261             0.00642834635            0.000851604478           
       3.190901             0.00598644088            0.000755828827           
       3.193541             0.00660702512            0.000834343968           
       3.196182             0.00743862027            0.000922605098           
       3.198822             0.00468992429            0.000732821347           
       3.201463             0.00595216985             0.00081134463           
       3.204103             0.00546768339            0.000772892365           
       3.206743             0.00697448352            0.000872835896           
       3.209384             0.00687843337            0.000936508646           
       3.212024              0.0048568748            0.000733681407           
       3.214664             0.00729222383             0.00102228959           
       3.217305             0.00452611226            0.000765579474           
       3.219945             0.00588050641            0.000898171524           
       3.222586             0.00434245389            0.000735151647           
       3.225226             0.00628477778            0.000981116593           
       3.227866              0.0062741289            0.000895970679           
       3.230507             0.00506953545             0.00083486494           
       3.233147             0.00757314473             0.00102863916           
       3.235787             0.00743740748             0.00104320711           
       3.238428             0.00425742851            0.000851737575           
       3.241068             0.00638589073            0.000975388334           
       3.243709             0.00460582935            0.000855830684           
       3.246349             0.00595307261             0.00088696323           
       3.248989             0.00660960596             0.00110354694           
       3.251630             0.00598599248             0.00101131185           
       3.254270             0.00530759596            0.000851082602           
       3.256911             0.00485920086            0.000888534172           
       3.259551             0.00526498055            0.000995726597           
       3.262191             0.00606979811              0.0010920587           
       3.264832             0.00491987866             0.00102728294           
       3.267472              0.0048799934             0.00095978756           
       3.270112             0.00595247977             0.00117145827           
       3.272753             0.00638935157             0.00111091553           
       3.275393             0.00825432975             0.00128837422           
       3.278034             0.00420223059            0.000919783258           
       3.280674             0.00949274377             0.00150012259           
       3.283314             0.00435846771            0.000909091093           
       3.285955             0.00646214091             0.00114213117           
       3.288595             0.00527972934             0.00114854559           
       3.291235             0.00525970255             0.00117845364           
       3.293876             0.00677288818             0.00135648571           
       3.296516             0.00624254192             0.00125023135           
       3.299157             0.00608245229             0.00121858958           
       3.301797              0.0047121392             0.00122346857           
       3.304437             0.00572173488             0.00116803675           
       3.307078             0.00344808503            0.000998827319           
       3.309718             0.00648450949             0.00141382382           
       3.312359             0.00398162613             0.00110812849           
       3.314999             0.00448396702             0.00115782497           
       3.317639             0.00575318981             0.00125428213           
       3.320280             0.00429605268             0.00115237347           
       3.322920             0.00412890736             0.00114874805           
       3.325560             0.00538048164             0.00131223841           
       3.328201             0.00593183525             0.00124090504           
       3.330841             0.00417756579             0.00126741413           
       3.333482             0.00547811187             0.00137185953           
       3.336122             0.00512858834             0.00132798359           
       3.338762             0.00687720326              0.0017763966           
       3.341403             0.00670703588              0.0016762863           
       3.344043              0.0065681602             0.00159262412           
       3.346683             0.00726765921             0.00171032941           
       3.349324             0.00252225623             0.00113284504           
       3.351964             0.00397356285             0.00150359547           
       3.354605             0.00520608791             0.00196829834           
       3.357245             0.00480458237             0.00170577112           
       3.359885             0.00545914121             0.00145526027           
       3.362526             0.00658490056             0.00199871721           
       3.365166             0.00704962807             0.00195056611           
       3.367807             0.00621206147             0.00234334616           
       3.370447             0.00607309996             0.00192197358           
       3.373087             0.00335972253             0.00152869612           
       3.375728             0.00878829367             0.00279036468           
       3.378368             0.00195709627             0.00195427051           
       3.381008             0.00438270741             0.00218035876           
       3.383649             0.00344670493             0.00155111227           
       3.386289             0.00582358999             0.00238625646           
       3.388930             0.00742410766             0.00426174212           
       3.391570             0.00863145756             0.00325064538           
       3.394210             0.00594032012             0.00341273382           
       3.396851             0.00716994052             0.00419400617           
       3.399491              0.0095819111             0.00484975108           
       3.402131           -2.62492049e-05                         0           
       3.404772              0.0192102722              0.0137428373           
       3.407412                       nan                       nan           
       3.410053              0.0276507933              0.0165081202           
       3.412693                       nan                       nan           
       3.415333           -2.63768667e-05                         0           
