################################################################################
# EDF_DataBlockID                     0.Image.Psd
# EDF_BinarySize                      2105344
# EDF_HeaderSize                      2560
# ByteOrder                           LowByteFirst
# DataType                            FloatValue
# Dim_1                               512
# Dim_2                               1028
# Image                               0
# HeaderID                            EH:000000:000000:000000
# Size                                2105344
# Center_1                            304.9000
# Center_2                            588.7000
# Comment                             Xenocs_Cell_Window - 20251028_20perc_iodine_1.23mg
# DDummy                              0.6
# Date                                2025-11-03T06:56:27
# Delta                               21.910000
# Dummy                               -1.5
# ExposureTime                        360
# Gamma                               15.360000
# Intensity1                          8.83433e-10
# PSize_1                             7.5e-05
# PSize_2                             7.5e-05
# Pressure                            0.0329542
# SampleDistance                      0.115750
# SampleEnvKind                       large
# SampleEnvPN                         ElectroChemical cell
# SampleEnvSN                         1141
# Thickness                           0
# Wavelength                          1.541891e-10
# Wavelength                          1.54189e-10
# aux                                 0
# aux_dial                            0.002375
# beamx                               588.434
# beamx_dial                          588.434
# beamz                               657.808
# beamz_dial                          657.808
# det0x                               0
# det0x_dial                          6.36945
# det0xvd                             0
# det0xvd_dial                        0
# det0y                               450.002
# det0y_dial                          481.635
# det0z                               0
# det0z_dial                          1.23302
# det0zvd                             0
# det0zvd_dial                        0
# mag                                 1.818
# mag_dial                            1.818
# om                                  0.2499
# om_dial                             -0.610199
# phi                                 -0.0120535
# phi_dial                            0
# ry                                  0.599993
# ry_dial                             0.599993
# s1bot                               0.8
# s1bot_dial                          -1.66094
# s1hl                                0.8
# s1hl_dial                           -0.608437
# s1hr                                0.8
# s1hr_dial                           0.970938
# s1top                               0.8
# s1top_dial                          -0.461562
# s2bot                               0.45
# s2bot_dial                          1.36109
# s2hl                                0.45
# s2hl_dial                           -0.83375
# s2hr                                0.45
# s2hr_dial                           -0.118594
# s2top                               0.45
# s2top_dial                          1.44734
# w2theta                             32
# w2theta_dial                        32
# waxsch                              19.2605
# waxsch_dial                         -32.7355
# waxsh                               137.085
# waxsh_dial                          -43.5338
# waxsth                              26.0607
# waxsth_dial                         -19.4086
# waxsz                               67.0407
# waxsz_dial                          -23.7954
# wind                                65.9854
# wind_dial                           66.0041
# wpsi                                124
# wpsi_dial                           124
# wstod                               115
# wstod_dial                          115
# x                                   0
# x_dial                              1.00969
# z                                   0
# z_dial                              13.3172
# CountCutoff                         6807993
# DetectorModel                       Dectris EIGER2 Si 500K, S/N E-01-0554
# ThresholdSetting                    4023.88989258
# Saturation                          0
# FlatField                           Corrected
# BackgroundReductionExtra            0.02
# BackgroundCorrectionConstant        0.0026712
# Detector                            0
# Monitor                             0
# Pil_Roi0                            0
# SumForIntensity1                    3.18036e+08
# TransmittedFlux                     883433
# det                                 0
# mon                                 0
# pilai0                              3.18036e+08
# pilai1                              797820
# pilct0                              5.49905e+08
# pilct1                              797820
# pilroi0                             0
# pilroi1                             0
# sec                                 1
# title                               20251028_20perc_iodine_1.23mg_1_01241.edf
# usaxs0                              0
# Operation                           Azimuthal average I(q)
# Error_model                         ErrorModel.poisson
# Geometrical_correction              True
# Transmission_correction             True
# Thickness_correction                False
# Binning mode                        Uniform
# Binning factor                      1.0
# Psi                                 0.0
# Omega                               0.2499
# MaskInvalidPixels                   True
# DetectorEdge                        3
# MaskFiles                           ['WAXS_corrected.edf']
################################################################################
    q(A⁻¹)                Intensity(a.u.)            Sigma_I(a.u.)            
       0.693100              0.0160220483             0.00830206782           
       0.695741             0.00812477522             0.00482437053           
       0.698381             0.00403797233             0.00416609822           
       0.701021            -2.2945972e-05                         0           
       0.703662              0.0054351801              0.0039440867           
       0.706302             0.00496065223             0.00291719881           
       0.708942              0.0083206668             0.00487637121           
       0.711583             0.00855176416             0.00428086314           
       0.714223             0.00568595093              0.0040299992           
       0.716864             0.00971889449             0.00344732813           
       0.719504             0.00704922227             0.00316820042           
       0.722144             0.00605309838             0.00271880293           
       0.724785             0.00992870842             0.00277758044           
       0.727425              0.0070621951             0.00316905787           
       0.730065             0.00767686395             0.00233718696           
       0.732706              0.0073960046             0.00192641061           
       0.735346             0.00852529699             0.00269605748           
       0.737987              0.0101760263             0.00208142405           
       0.740627             0.00375021609              0.0018853244           
       0.743267             0.00677070745             0.00169674714           
       0.745908             0.00807414534             0.00201028257           
       0.748548              0.0089447539             0.00195032711           
       0.751189             0.00929145891              0.0026784389           
       0.753829             0.00588135441             0.00195886077           
       0.756469              0.0067141122             0.00168768946           
       0.759110             0.00661379696             0.00176520116           
       0.761750             0.00403941594             0.00121980028           
       0.764390             0.00395419826             0.00126317676           
       0.767031             0.00512589333             0.00124542864           
       0.769671             0.00661142797             0.00176439713           
       0.772312             0.00597378395              0.0012768057           
       0.774952             0.00796025446             0.00199032157           
       0.777592             0.00682934177             0.00134278471           
       0.780233             0.00922867067             0.00188326012           
       0.782873              0.0101378683             0.00188780307           
       0.785513             0.00522503151             0.00144887727           
       0.788154             0.00810458651             0.00150951156           
       0.790794             0.00638992947             0.00160242635           
       0.793435             0.00715848535             0.00152366971           
       0.796075             0.00870904564             0.00161894357           
       0.798715             0.00460563048             0.00139124532           
       0.801356              0.0067893444             0.00145381453           
       0.803996             0.00742513903             0.00155002998           
       0.806637             0.00634694437             0.00114046607           
       0.809277             0.00647516064             0.00124682824           
       0.811917              0.0069185681             0.00120483372           
       0.814558             0.00946984353              0.0014650089           
       0.817198             0.00553411748             0.00106399132           
       0.819838             0.00565327495             0.00108836901           
       0.822479              0.0092852668             0.00163791895           
       0.825119             0.00713536747             0.00122207288           
       0.827760             0.00817896718             0.00132535129           
       0.830400              0.0078919133             0.00122531607           
       0.833040             0.00729598166             0.00123433346           
       0.835681             0.00727111316              0.0014008324           
       0.838321             0.00665221597             0.00112461174           
       0.840961             0.00717820577             0.00127283874           
       0.843602             0.00694926917             0.00114848065           
       0.846242             0.00663397465             0.00112195706           
       0.848883              0.0075493998             0.00122482015           
       0.851523             0.00675715978             0.00114437846           
       0.854163             0.00809416359             0.00133196478           
       0.856804             0.00566311407             0.00100175229           
       0.859444             0.00916030555             0.00124832627           
       0.862085             0.00627378316             0.00107673769           
       0.864725             0.00792337401             0.00123835253           
       0.867365             0.00634088013             0.00102725884           
       0.870006             0.00663557774             0.00100138797           
       0.872646             0.00781847122             0.00113985517           
       0.875286             0.00673976937             0.00101815589           
       0.877927             0.00844500184             0.00109976011           
       0.880567             0.00847986856             0.00114172345           
       0.883208             0.00753185442              0.0010658755           
       0.885848              0.0079517639             0.00113713099           
       0.888488             0.00726926812             0.00101976092           
       0.891129             0.00812904838             0.00110727388           
       0.893769             0.00621546987            0.000926607744           
       0.896410             0.00753896803            0.000951467718           
       0.899050             0.00771116954             0.00105823852           
       0.901690             0.00619550929             0.00103325066           
       0.904331             0.00664024097            0.000948341635           
       0.906971             0.00811155102             0.00111506257           
       0.909611             0.00659321549            0.000915145265           
       0.912252             0.00744459734             0.00100442653           
       0.914892             0.00597488134            0.000983326318           
       0.917533             0.00823490227             0.00109207308           
       0.920173             0.00758368305            0.000972340832           
       0.922813             0.00863206497             0.00108860822           
       0.925454             0.00700664217            0.000883160544           
       0.928094             0.00705449028            0.000946062209           
       0.930734             0.00629140988            0.000961876939           
       0.933375             0.00658848123             0.00097464771           
       0.936015             0.00699418116            0.000912035159           
       0.938656             0.00905354072             0.00111315706           
       0.941296             0.00833191802            0.000967787222           
       0.943936             0.00669889055            0.000850991219           
       0.946577             0.00755312574             0.00089764842           
       0.949217             0.00711218305            0.000801011857           
       0.951858              0.0053273153            0.000725697407           
       0.954498             0.00821510067             0.00104309098           
       0.957138             0.00676186564            0.000896531375           
       0.959779             0.00739231247            0.000924078272           
       0.962419             0.00717321058             0.00090422593           
       0.965059              0.0086826062             0.00104629206           
       0.967700             0.00672956441            0.000943420837           
       0.970340              0.0082699059            0.000925458551           
       0.972981              0.0078080499            0.000819298378           
       0.975621             0.00848731523            0.000908714087           
       0.978261             0.00762952413            0.000818643483           
       0.980902             0.00702030121            0.000939547094           
       0.983542               0.008870808            0.000935282476           
       0.986182             0.00741557214            0.000839564082           
       0.988823             0.00878178837            0.000887141727           
       0.991463             0.00835999482            0.000923477839           
       0.994104             0.00854167835            0.000910603279           
       0.996744             0.00718129716            0.000851639545           
       0.999384             0.00711250907            0.000757994023           
       1.002025             0.00795522907            0.000894738887           
       1.004665             0.00723748974            0.000779922321           
       1.007306             0.00765756771            0.000798130899           
       1.009946              0.0074490073            0.000802820586           
       1.012586             0.00771450966            0.000795712464           
       1.015227             0.00919205253            0.000933123451           
       1.017867              0.0076132698            0.000816155863           
       1.020507             0.00781446043            0.000800935516           
       1.023148             0.00773684947            0.000859928965           
       1.025788             0.00890808558            0.000846066856           
       1.028429             0.00741668806            0.000808797334           
       1.031069             0.00718936606            0.000749354582           
       1.033709             0.00721254087            0.000797848593           
       1.036350             0.00832893116            0.000770040245           
       1.038990             0.00767663125             0.00075285692           
       1.041630             0.00770068945            0.000786466861           
       1.044271             0.00744792149            0.000727403179           
       1.046911             0.00889430872            0.000836133518           
       1.049552             0.00799247976            0.000832738824           
       1.052192             0.00933649952            0.000821847335           
       1.054832             0.00839196962            0.000786255895           
       1.057473             0.00860927528            0.000785053353           
       1.060113             0.00878085834            0.000773232468           
       1.062754             0.00766187641            0.000737441221           
       1.065394             0.00872393199            0.000831949874           
       1.068034              0.0085437322            0.000749101704           
       1.070675             0.00894824731            0.000799689555           
       1.073315             0.00905307082            0.000815889305           
       1.075955             0.00890741588            0.000764024773           
       1.078596             0.00831222128            0.000784408565           
       1.081236             0.00964207804            0.000808979438           
       1.083877             0.00855059808            0.000754982584           
       1.086517             0.00709612653            0.000737501131           
       1.089157             0.00825565076             0.00082539659           
       1.091798             0.00822683064            0.000722374594           
       1.094438             0.00923671828            0.000762958742           
       1.097078             0.00748278471            0.000658627641           
       1.099719             0.00889105038               0.000776556           
       1.102359             0.00862427999            0.000716260491           
       1.105000             0.00833438149            0.000787342617           
       1.107640             0.00726866778            0.000703050042           
       1.110280              0.0104042804             0.00076747003           
       1.112921             0.00875118582            0.000756102304           
       1.115561             0.00840362762            0.000704197329           
       1.118202             0.00947590429            0.000748480234           
       1.120842             0.00920812013            0.000775462646           
       1.123482             0.00788637941            0.000714518108           
       1.126123             0.00933552227            0.000745655443           
       1.128763             0.00760453693            0.000677599019           
       1.131403             0.00940754685            0.000726214472           
       1.134044             0.00908900056            0.000734515852           
       1.136684             0.00824743867            0.000745985689           
       1.139325             0.00880880489            0.000710203556           
       1.141965             0.00822560952            0.000690828131           
       1.144605             0.00805519185            0.000651847431           
       1.147246             0.00932962546             0.00071794514           
       1.149886             0.00828817808            0.000674286132           
       1.152527             0.00840587799             0.00068893185           
       1.155167             0.00827381489            0.000650111261           
       1.157807              0.0091564549             0.00073327255           
       1.160448             0.00942007364            0.000726294123           
       1.163088             0.00961793091            0.000700015389           
       1.165728             0.00933784354             0.00070817667           
       1.168369             0.00819597016            0.000669595228           
       1.171009             0.00904746544            0.000682745793           
       1.173650             0.00894432742            0.000696654883           
       1.176290             0.00802178207            0.000644723559           
       1.178930             0.00931215237             0.00068081571           
       1.181571             0.00993356626            0.000717108821           
       1.184211              0.0111519411              0.0007625087           
       1.186851              0.0099639007            0.000704666261           
       1.189492             0.00925258993            0.000674479638           
       1.192132               0.010114495            0.000697282803           
       1.194773              0.0101499798            0.000701556823           
       1.197413             0.00989290015             0.00066362351           
       1.200053             0.00945120622            0.000665120712           
       1.202694             0.00994104216             0.00064867505           
       1.205334              0.0095737485             0.00068603282           
       1.207975              0.0103375672            0.000680458781           
       1.210615             0.00958180094            0.000722700956           
       1.213255             0.00948741679            0.000643966794           
       1.215896             0.00851605596            0.000621165427           
       1.218536              0.0102755416            0.000656083329           
       1.221176              0.0100958443            0.000707032655           
       1.223817             0.00867314032             0.00061516413           
       1.226457             0.00912288818            0.000643622836           
       1.229098              0.0104296057            0.000688141982           
       1.231738             0.00965289606            0.000665281003           
       1.234378              0.0105533224            0.000653637809           
       1.237019              0.0111692327             0.00069294416           
       1.239659             0.00937568341            0.000629344324           
       1.242299              0.0108063506            0.000667072839           
       1.244940             0.00906276704            0.000594130363           
       1.247580             0.00892788116             0.00060772625           
       1.250221              0.0105359621            0.000656119341           
       1.252861             0.00891024537            0.000574420211           
       1.255501              0.0101310354            0.000665066665           
       1.258142             0.00912262421            0.000593031645           
       1.260782             0.00989912027            0.000631121533           
       1.263423              0.0103334442              0.0006195973           
       1.266063              0.0106844351            0.000645764952           
       1.268703              0.0107282482            0.000641718057           
       1.271344             0.00948238175             0.00062375381           
       1.273984              0.0106703722             0.00063904686           
       1.276624              0.0110904439             0.00063926494           
       1.279265              0.0109807421            0.000646658778           
       1.281905              0.0104686945            0.000634203733           
       1.284546              0.0100914462            0.000601868814           
       1.287186               0.010631733            0.000606098415           
       1.289826              0.0103590137            0.000630532089           
       1.292467              0.0099873053            0.000605479635           
       1.295107             0.00996293676            0.000598733265           
       1.297747             0.00975551064            0.000566942414           
       1.300388              0.0111434848            0.000660543239           
       1.303028              0.0113479872            0.000636354168           
       1.305669              0.0100132144            0.000611992341           
       1.308309              0.0108886584            0.000631900121           
       1.310949              0.0107405979            0.000626958523           
       1.313590               0.013152646            0.000672107721           
       1.316230              0.0114301164            0.000668618793           
       1.318871              0.0103717166             0.00062377587           
       1.321511              0.0112026016            0.000636264055           
       1.324151              0.0107028672            0.000603473312           
       1.326792               0.011398126            0.000626615946           
       1.329432              0.0100699496            0.000584820744           
       1.332072               0.011354986            0.000611760445           
       1.334713              0.0117362678            0.000641910614           
       1.337353              0.0109086609             0.00059350299           
       1.339994              0.0116392886            0.000643341586           
       1.342634              0.0115569454            0.000614738061           
       1.345274              0.0108068475            0.000615203786           
       1.347915               0.011478096            0.000616513686           
       1.350555              0.0102491387            0.000592777629           
       1.353195              0.0119088762            0.000642112797           
       1.355836              0.0102859813            0.000587453426           
       1.358476              0.0115945905            0.000605710934           
       1.361117              0.0104371874            0.000575473275           
       1.363757              0.0109731808            0.000608082133           
       1.366397              0.0113715151            0.000600288341           
       1.369038              0.0115028737            0.000609757146           
       1.371678              0.0107518804            0.000584319252           
       1.374319              0.0107649843             0.00057964066           
       1.376959              0.0117425331            0.000599298828           
       1.379599              0.0104860749             0.00060693348           
       1.382240              0.0106405588            0.000574612843           
       1.384880              0.0108857226            0.000615617384           
       1.387520              0.0120115003            0.000614159847           
       1.390161              0.0102744587            0.000539480856           
       1.392801              0.0106001114            0.000570925047           
       1.395442              0.0110288092            0.000590309157           
       1.398082              0.0115425767            0.000565528071           
       1.400722              0.0116446695            0.000594991659           
       1.403363              0.0104701362            0.000593875893           
       1.406003              0.0109994515            0.000569663729           
       1.408644                0.01268815             0.00064093383           
       1.411284              0.0108316511            0.000560751782           
       1.413924               0.010588201            0.000552358935           
       1.416565              0.0113497105            0.000569630677           
       1.419205              0.0102930022            0.000565877931           
       1.421845              0.0107710592            0.000578529948           
       1.424486              0.0111208105             0.00056505681           
       1.427126              0.0108204901            0.000579004669           
       1.429767              0.0113406445            0.000557713281           
       1.432407              0.0111150273             0.00057782498           
       1.435047              0.0109315029             0.00053817477           
       1.437688              0.0112006145            0.000552903987           
       1.440328              0.0104933428            0.000546193469           
       1.442968              0.0113397236            0.000580515756           
       1.445609              0.0111722645            0.000557934403           
       1.448249              0.0112116024            0.000573067163           
       1.450890               0.011180884            0.000568546301           
       1.453530              0.0108960475            0.000587188371           
       1.456170              0.0107096017            0.000564983347           
       1.458811              0.0114166147             0.00055779685           
       1.461451              0.0113068854            0.000556565973           
       1.464092              0.0115664362               0.000566598           
       1.466732              0.0109062653             0.00054546282           
       1.469372              0.0111772985            0.000539275765           
       1.472013              0.0111055558             0.00057975009           
       1.474653              0.0110136591            0.000568440136           
       1.477293              0.0111869382            0.000584969054           
       1.479934              0.0119468232            0.000576828826           
       1.482574              0.0102082819            0.000515795917           
       1.485215              0.0106439263            0.000536496544           
       1.487855              0.0109019723            0.000550123425           
       1.490495              0.0108669541             0.00054721639           
       1.493136              0.0104692603            0.000529747826           
       1.495776              0.0103963307            0.000525495769           
       1.498416              0.0108465875            0.000554315646           
       1.501057              0.0105029071            0.000533441852           
       1.503697              0.0105377275            0.000522388291           
       1.506338              0.0116923681            0.000560319368           
       1.508978              0.0114449529            0.000548907643           
       1.511618              0.0111297671            0.000576478253           
       1.514259              0.0097197814            0.000520114961           
       1.516899              0.0110141193            0.000539084827           
       1.519540              0.0103675434            0.000531456357           
       1.522180             0.00982345374            0.000521867406           
       1.524820              0.0119770537            0.000573006585           
       1.527461              0.0104589992             0.00053811149           
       1.530101              0.0100422482            0.000522008291           
       1.532741              0.0112482149            0.000549257519           
       1.535382              0.0105853431            0.000541405429           
       1.538022              0.0106991341            0.000512766638           
       1.540663              0.0103701568            0.000542967027           
       1.543303               0.010823739            0.000515061383           
       1.545943              0.0102756654            0.000531172862           
       1.548584               0.010535778            0.000547508566           
       1.551224              0.0104655202            0.000504532711           
       1.553864              0.0106111957            0.000536830756           
       1.556505              0.0108889345            0.000525335423           
       1.559145              0.0106528412            0.000525974227           
       1.561786             0.00987219063            0.000506725604           
       1.564426             0.00998477234             0.00049375587           
       1.567066              0.0100312854            0.000518564987           
       1.569707             0.00981982741            0.000503853886           
       1.572347                0.01078416            0.000545491763           
       1.574988             0.00981705235             0.00049538864           
       1.577628              0.0104373427            0.000532637928           
       1.580268             0.00981274553            0.000500389776           
       1.582909              0.0108919254            0.000558798279           
       1.585549             0.00999631629            0.000519789688           
       1.588189              0.0105424004            0.000522148228           
       1.590830             0.00971581348            0.000500631544           
       1.593470             0.00952915124            0.000515430706           
       1.596111             0.00930192765             0.00049718462           
       1.598751             0.00960994258             0.00048966646           
       1.601391             0.00899597496            0.000484218796           
       1.604032              0.0091714596            0.000499139747           
       1.606672             0.00952106632            0.000494118328           
       1.609312             0.00872688423            0.000493821075           
       1.611953             0.00997951564            0.000516753279           
       1.614593             0.00986963437            0.000504095692           
       1.617234              0.0089681914            0.000498003673           
       1.619874              0.0095211385            0.000511099647           
       1.622514             0.00981905881            0.000511953922           
       1.625155             0.00865082092             0.00048337329           
       1.627795             0.00978811192            0.000501568122           
       1.630436             0.00930164082            0.000486392156           
       1.633076             0.00884050108             0.00048040126           
       1.635716             0.00962050799            0.000493349085           
       1.638357             0.00956468999            0.000493212416           
       1.640997             0.00887736238            0.000489554296           
       1.643637             0.00989024799            0.000502835149           
       1.646278             0.00944370901            0.000506791037           
       1.648918             0.00908112467            0.000498322575           
       1.651559             0.00831726354            0.000480605491           
       1.654199             0.00807791919            0.000460656373           
       1.656839             0.00948229548            0.000499270199           
       1.659480             0.00883334878            0.000499978592           
       1.662120              0.0091385415             0.00047896316           
       1.664761             0.00948835349             0.00050695188           
       1.667401             0.00890606722            0.000469434394           
       1.670041             0.00899725118            0.000479025769           
       1.672682             0.00910026887            0.000479780246           
       1.675322             0.00866798439            0.000465235204           
       1.677962              0.0091580444            0.000472930624           
       1.680603             0.00860040392            0.000459716265           
       1.683243             0.00875016212             0.00048378603           
       1.685884             0.00913857148             0.00049805781           
       1.688524             0.00940698023            0.000495551212           
       1.691164             0.00926882217            0.000492010379           
       1.693805             0.00870533569            0.000482058375           
       1.696445             0.00895631151            0.000491794205           
       1.699085             0.00875886878            0.000470046727           
       1.701726             0.00824497709            0.000439323845           
       1.704366             0.00886525432            0.000479908991           
       1.707007             0.00894608892            0.000471345614           
       1.709647             0.00832546842            0.000459837348           
       1.712287             0.00850414641            0.000468790838           
       1.714928             0.00924082797            0.000492613935           
       1.717568             0.00902011692            0.000458469096           
       1.720209             0.00839509242            0.000463278341           
       1.722849             0.00909598587            0.000479750718           
       1.725489             0.00808194062            0.000452598481           
       1.728130             0.00864115364            0.000497347443           
       1.730770              0.0086895566            0.000473667471           
       1.733410             0.00803036789             0.00044818938           
       1.736051              0.0078339447            0.000445755291           
       1.738691             0.00881170098            0.000463171645           
       1.741332             0.00872233956             0.00047429169           
       1.743972             0.00899664158            0.000497428558           
       1.746612             0.00928457799            0.000485241724           
       1.749253             0.00888188233             0.00048397462           
       1.751893             0.00881096951            0.000478500474           
       1.754533             0.00834850541            0.000465338645           
       1.757174             0.00921126432            0.000484215033           
       1.759814             0.00752454547            0.000431007985           
       1.762455              0.0079061113            0.000449913347           
       1.765095             0.00896658377            0.000458354072           
       1.767735             0.00851172591            0.000460353949           
       1.770376             0.00792560507            0.000445392279           
       1.773016              0.0088684332            0.000467984114           
       1.775657             0.00844042349            0.000449982354           
       1.778297             0.00857835292            0.000449737883           
       1.780937             0.00906758772            0.000488046821           
       1.783578              0.0084490328            0.000459326849           
       1.786218             0.00811132731            0.000469680232           
       1.788858             0.00831031738            0.000451521473           
       1.791499             0.00847058597             0.00045073492           
       1.794139             0.00806676825            0.000436291132           
       1.796780             0.00952104467            0.000471704632           
       1.799420             0.00974796844            0.000474649684           
       1.802060             0.00872731917            0.000452741602           
       1.804701             0.00899803211            0.000441158424           
       1.807341             0.00898264738            0.000463165082           
       1.809981             0.00918688663            0.000469962668           
       1.812622             0.00897050562            0.000456034498           
       1.815262              0.0088026787            0.000461344617           
       1.817903             0.00893894129            0.000458013248           
       1.820543             0.00778949778            0.000434215008           
       1.823183             0.00889101738            0.000463646529           
       1.825824             0.00868235568            0.000437720506           
       1.828464             0.00872496551            0.000457460963           
       1.831105             0.00860883535            0.000441842973           
       1.833745             0.00873670129            0.000454618445           
       1.836385             0.00927537544            0.000481792003           
       1.839026             0.00873369563            0.000466035029           
       1.841666             0.00913745358            0.000474995409           
       1.844306             0.00777970397            0.000426327896           
       1.846947              0.0083591565            0.000445793534           
       1.849587             0.00718478051            0.000456376965           
       1.852228             0.00846052474            0.000447819581           
       1.854868              0.0082722074            0.000467760815           
       1.857508             0.00785261783            0.000451273488           
       1.860149              0.0076717681            0.000454150723           
       1.862789             0.00902193034            0.000475371774           
       1.865429             0.00831991886             0.00047651881           
       1.868070             0.00740971812            0.000443704714           
       1.870710             0.00850731114            0.000464472128           
       1.873351             0.00746871176             0.00044057749           
       1.875991             0.00837963747             0.00047428854           
       1.878631             0.00757228697            0.000442226911           
       1.881272             0.00722514667            0.000429077045           
       1.883912             0.00758764613            0.000457609312           
       1.886553             0.00830713975            0.000473461111           
       1.889193             0.00849619876            0.000478000321           
       1.891833             0.00820143818            0.000487734721           
       1.894474              0.0084399189             0.00049046607           
       1.897114             0.00805660982             0.00046371097           
       1.899754             0.00839498099            0.000475329092           
       1.902395             0.00801252357            0.000455296296           
       1.905035             0.00843989041            0.000494928599           
       1.907676             0.00785937937            0.000450143505           
       1.910316             0.00827852807             0.00047425755           
       1.912956             0.00776240108             0.00044913255           
       1.915597             0.00879327011            0.000480697821           
       1.918237             0.00824371535            0.000480680444           
       1.920878             0.00744794085            0.000455021138           
       1.923518             0.00787124293            0.000467971442           
       1.926158             0.00855482375             0.00048153818           
       1.928799             0.00746329639            0.000444563843           
       1.931439             0.00694316708            0.000440039716           
       1.934079             0.00819615072            0.000498406675           
       1.936720             0.00775187281            0.000449098124           
       1.939360             0.00746164523            0.000470070371           
       1.942001             0.00842332789            0.000457766682           
       1.944641             0.00756944116            0.000442492281           
       1.947281             0.00828180386             0.00045857945           
       1.949922             0.00762713486            0.000454564968           
       1.952562             0.00720414872             0.00045562843           
       1.955202             0.00842012058             0.00049198167           
       1.957843             0.00827826205             0.00047516915           
       1.960483             0.00736055528             0.00046844372           
       1.963124             0.00791987519            0.000475947338           
       1.965764             0.00775545942             0.00044414839           
       1.968404             0.00802671072            0.000447579557           
       1.971045              0.0069772489             0.00042545455           
       1.973685             0.00896783805            0.000505940592           
       1.976326             0.00782307397            0.000466051749           
       1.978966             0.00771459313            0.000466870694           
       1.981606             0.00718827165             0.00046006233           
       1.984247              0.0081097919            0.000485450091           
       1.986887             0.00705604716            0.000447390457           
       1.989527                0.00790937            0.000468569994           
       1.992168             0.00791272718            0.000486284251           
       1.994808             0.00829297185            0.000495697313           
       1.997449             0.00781594429            0.000471346668           
       2.000089             0.00789673601            0.000471898141           
       2.002729             0.00781619463            0.000469766922           
       2.005370             0.00750739535            0.000455440028           
       2.008010             0.00779513469            0.000484340151           
       2.010650             0.00738490818            0.000474941166           
       2.013291             0.00725193654            0.000451558672           
       2.015931             0.00733175325            0.000450827319           
       2.018572              0.0071534599            0.000476303275           
       2.021212             0.00735664726            0.000474342091           
       2.023852             0.00818534418            0.000473553634           
       2.026493             0.00650929768            0.000441164116           
       2.029133             0.00803305133            0.000480224696           
       2.031774             0.00806701496            0.000505049443           
       2.034414             0.00720122024             0.00043907015           
       2.037054             0.00726629696            0.000452228764           
       2.039695             0.00801112018            0.000471254759           
       2.042335              0.0074577157            0.000472519067           
       2.044975             0.00744912698            0.000466519837           
       2.047616              0.0070898728            0.000454000667           
       2.050256             0.00695665931            0.000453971181           
       2.052897             0.00798127572            0.000495219385           
       2.055537             0.00806466499            0.000481104501           
       2.058177             0.00822871951            0.000475898876           
       2.060818             0.00780416093            0.000485509577           
       2.063458             0.00724164322            0.000487374017           
       2.066098              0.0084683322            0.000497174328           
       2.068739             0.00731933042             0.00046940117           
       2.071379             0.00846485455            0.000517964028           
       2.074020              0.0080076993            0.000492834643           
       2.076660             0.00783178307            0.000491331237           
       2.079300             0.00749847405            0.000492542048           
       2.081941             0.00765102221            0.000455542586           
       2.084581             0.00709823163            0.000463133919           
       2.087222             0.00809392349            0.000476947138           
       2.089862             0.00706861954            0.000485452486           
       2.092502             0.00708822225            0.000471228934           
       2.095143             0.00694832721            0.000481788447           
       2.097783              0.0074794018            0.000483950063           
       2.100423             0.00814393358            0.000486605974           
       2.103064             0.00704573677            0.000469643036           
       2.105704             0.00675237066             0.00045748441           
       2.108345             0.00824439682            0.000485657538           
       2.110985             0.00686067466            0.000473189153           
       2.113625             0.00764070138            0.000503722547           
       2.116266              0.0070369702            0.000490270709           
       2.118906             0.00789723553            0.000484027951           
       2.121546             0.00702578537            0.000447824794           
       2.124187             0.00694067551            0.000467221807           
       2.126827             0.00788462694             0.00050353888           
       2.129468             0.00747543548            0.000491551022           
       2.132108             0.00771249027            0.000485765359           
       2.134748             0.00685987699            0.000456351146           
       2.137389             0.00763017493            0.000502106626           
       2.140029             0.00766803686            0.000450630397           
       2.142670               0.006831938            0.000454584801           
       2.145310             0.00825084691            0.000486235803           
       2.147950             0.00694687805            0.000459222207           
       2.150591             0.00778183001            0.000481124617           
       2.153231             0.00786372204            0.000497842015           
       2.155871             0.00661820562            0.000441219421           
       2.158512              0.0077873327            0.000499392249           
       2.161152              0.0073693643            0.000470581537           
       2.163793             0.00703407907            0.000457682103           
       2.166433             0.00763904317            0.000489785227           
       2.169073             0.00793320584            0.000488014173           
       2.171714             0.00682842297            0.000449375641           
       2.174354             0.00668719306            0.000464674831           
       2.176995             0.00749379547            0.000489831686           
       2.179635             0.00680645622            0.000493303767           
       2.182275              0.0084668643            0.000519469666           
       2.184916             0.00681443887            0.000450124522           
       2.187556             0.00762957568            0.000471512256           
       2.190196             0.00769631006            0.000494874144           
       2.192837             0.00673575647            0.000460444516           
       2.195477              0.0076655042            0.000468296676           
       2.198118             0.00758884063            0.000477888311           
       2.200758             0.00852314104            0.000519589297           
       2.203398             0.00713471139            0.000478429609           
       2.206039             0.00740313435            0.000461232001           
       2.208679              0.0069246211            0.000456458234           
       2.211319             0.00754329289            0.000479159905           
       2.213960             0.00779777077            0.000493702584           
       2.216600             0.00729526528            0.000493994195           
       2.219241             0.00902750128            0.000525194539           
       2.221881             0.00668923332            0.000453019204           
       2.224521             0.00798100975            0.000500895116           
       2.227162             0.00685540218            0.000454936229           
       2.229802             0.00758858689            0.000493629609           
       2.232443             0.00681231368            0.000460323749           
       2.235083             0.00703071848             0.00048143883           
       2.237723             0.00628469284            0.000436811413           
       2.240364              0.0073992609             0.00048564131           
       2.243004             0.00731429002            0.000478990467           
       2.245644             0.00739989246            0.000486607631           
       2.248285             0.00781484827            0.000490047248           
       2.250925             0.00754611999            0.000484473155           
       2.253566             0.00682545865            0.000492586595           
       2.256206             0.00652560168            0.000472014358           
       2.258846             0.00670878539            0.000455274892           
       2.261487             0.00737285594            0.000500945469           
       2.264127             0.00788091185            0.000500196787           
       2.266767             0.00739479174            0.000497433439           
       2.269408             0.00702705445            0.000486892939           
       2.272048              0.0063291856            0.000459325554           
       2.274689             0.00780934978            0.000516938839           
       2.277329             0.00615363739            0.000432063647           
       2.279969             0.00801257452            0.000524795519           
       2.282610             0.00707372901            0.000479378132           
       2.285250             0.00731286553            0.000466521221           
       2.287891             0.00760021186            0.000509913382           
       2.290531             0.00695943859            0.000494504055           
       2.293171             0.00744614787            0.000498250631           
       2.295812             0.00665383872            0.000469103776           
       2.298452             0.00845474811            0.000552973685           
       2.301092             0.00652964193            0.000451514772           
       2.303733             0.00706356982            0.000488560772           
       2.306373             0.00725855174            0.000503057529           
       2.309014              0.0072075078            0.000491506644           
       2.311654              0.0067640311            0.000496880365           
       2.314294             0.00707081321            0.000468043836           
       2.316935             0.00748035609            0.000483396544           
       2.319575             0.00707318861            0.000492510374           
       2.322215             0.00748680749            0.000528073252           
       2.324856             0.00657539946            0.000454998176           
       2.327496             0.00733217949            0.000510889135           
       2.330137              0.0068765077            0.000473447772           
       2.332777             0.00678752707            0.000485006401           
       2.335417             0.00801640118            0.000511352139           
       2.338058             0.00718998651            0.000498744045           
       2.340698             0.00674587817            0.000479299072           
       2.343339             0.00629927304            0.000473353917           
       2.345979             0.00726202355            0.000480836287           
       2.348619             0.00780760043            0.000516795773           
       2.351260              0.0075335754            0.000504688057           
       2.353900             0.00749705667            0.000501868475           
       2.356540             0.00757441254            0.000503734932           
       2.359181             0.00728828388            0.000487201433           
       2.361821             0.00763250704            0.000481609083           
       2.364462             0.00721464343            0.000489720438           
       2.367102             0.00691491732             0.00049270132           
       2.369742             0.00689220527            0.000517749794           
       2.372383             0.00715360512            0.000477628889           
       2.375023             0.00733815104            0.000508526602           
       2.377663             0.00762750492            0.000495719717           
       2.380304             0.00682848797            0.000476857757           
       2.382944              0.0068410108            0.000454608203           
       2.385585             0.00743018721            0.000505294866           
       2.388225             0.00674035614             0.00047900593           
       2.390865             0.00770256937            0.000506795829           
       2.393506             0.00760347558             0.00049402571           
       2.396146             0.00679666181            0.000505028009           
       2.398787               0.007617655            0.000492731351           
       2.401427             0.00703009187             0.00045688942           
       2.404067             0.00657808667             0.00045181551           
       2.406708             0.00629758094            0.000436776077           
       2.409348             0.00699121936            0.000488134166           
       2.411988             0.00752394238            0.000496150579           
       2.414629             0.00660530297            0.000479354044           
       2.417269             0.00762002257            0.000520869932           
       2.419910             0.00601281308             0.00046376354           
       2.422550             0.00727334939            0.000487998127           
       2.425190              0.0067413513            0.000495231255           
       2.427831             0.00733833448            0.000513789363           
       2.430471             0.00743359148              0.0004926503           
       2.433112             0.00708723598            0.000468414696           
       2.435752             0.00714952147             0.00049790256           
       2.438392             0.00693211997            0.000473214644           
       2.441033              0.0068567217            0.000498777559           
       2.443673             0.00749609153            0.000521915065           
       2.446313             0.00706398762            0.000507095904           
       2.448954              0.0065958514            0.000466553318           
       2.451594             0.00643767075            0.000495602044           
       2.454235             0.00751429283            0.000502381687           
       2.456875             0.00723662112            0.000515867457           
       2.459515             0.00828243128            0.000566172545           
       2.462156             0.00776563894            0.000517600329           
       2.464796             0.00767332196            0.000507876458           
       2.467436             0.00819759912            0.000542849667           
       2.470077             0.00803507129            0.000509396884           
       2.472717              0.0084362853            0.000524220807           
       2.475358             0.00674078618            0.000473476983           
       2.477998             0.00838789646            0.000519261499           
       2.480638             0.00704965641            0.000484498925           
       2.483279             0.00650962065            0.000486596767           
       2.485919             0.00664025002            0.000473629078           
       2.488560             0.00688783747            0.000481030266           
       2.491200             0.00684130603            0.000493658074           
       2.493840             0.00698141912            0.000527676813           
       2.496481             0.00729027013            0.000530401948           
       2.499121              0.0071514554            0.000510965342           
       2.501761             0.00775898059            0.000539278316           
       2.504402             0.00727335457            0.000514500949           
       2.507042             0.00781924857            0.000529507497           
       2.509683             0.00768845362            0.000517035447           
       2.512323             0.00674458258            0.000508593026           
       2.514963             0.00680391637            0.000504514264           
       2.517604             0.00716902029            0.000537373626           
       2.520244             0.00754407689            0.000516798946           
       2.522884             0.00761261145             0.00052656529           
       2.525525              0.0123150168            0.000677336475           
       2.528165             0.00812080776            0.000541456547           
       2.530806             0.00740169935            0.000525937764           
       2.533446             0.00722025222            0.000508363937           
       2.536086             0.00699431159            0.000495868405           
       2.538727             0.00705371704            0.000477726288           
       2.541367             0.00707571562            0.000483183818           
       2.544008             0.00780883107            0.000524225198           
       2.546648             0.00713185408            0.000509579859           
       2.549288             0.00765609591             0.00053873461           
       2.551929             0.00769290792            0.000531420092           
       2.554569             0.00711078125             0.00049222691           
       2.557209             0.00711503645             0.00049689602           
       2.559850             0.00669759838            0.000483647427           
       2.562490             0.00701426819            0.000511556442           
       2.565131             0.00670788027            0.000518691194           
       2.567771             0.00793477585             0.00054391148           
       2.570411             0.00707517773            0.000508048246           
       2.573052             0.00758828686            0.000532774377           
       2.575692             0.00743437993            0.000524150461           
       2.578332             0.00625685509            0.000482840689           
       2.580973             0.00706291875             0.00050811962           
       2.583613             0.00640304878            0.000472281791           
       2.586254             0.00680799878            0.000486310386           
       2.588894             0.00598707574            0.000473584768           
       2.591534             0.00739290108            0.000544774635           
       2.594175             0.00706553514            0.000522526445           
       2.596815             0.00715621726            0.000528969573           
       2.599456             0.00732836562            0.000507616956           
       2.602096             0.00606475791            0.000465298763           
       2.604736             0.00736365182            0.000524867473           
       2.607377             0.00715629507            0.000503788869           
       2.610017             0.00667367513            0.000477990974           
       2.612657             0.00630611328            0.000494216357           
       2.615298             0.00608587418             0.00047400999           
       2.617938             0.00645912796             0.00052238776           
       2.620579             0.00727029972            0.000532045603           
       2.623219             0.00652155017            0.000503186062           
       2.625859             0.00734275946            0.000519127943           
       2.628500             0.00720977395            0.000511033747           
       2.631140             0.00794476639            0.000544715872           
       2.633780             0.00816516051            0.000551739558           
       2.636421             0.00789859553            0.000556003621           
       2.639061             0.00686774128            0.000488064194           
       2.641702             0.00667310193            0.000492236069           
       2.644342              0.0066855848            0.000494795614           
       2.646982             0.00660921318            0.000484606681           
       2.649623             0.00842975383            0.000573543822           
       2.652263             0.00698231017             0.00051674774           
       2.654904             0.00785594299            0.000548674622           
       2.657544             0.00686115629            0.000482966989           
       2.660184             0.00749195739            0.000534098829           
       2.662825             0.00748724599            0.000546317974           
       2.665465             0.00573524246            0.000462445727           
       2.668105             0.00621099491            0.000507249787           
       2.670746             0.00698663213            0.000496989202           
       2.673386             0.00779039706            0.000540847208           
       2.676027             0.00859369686            0.000558930945           
       2.678667             0.00950467525            0.000573555367           
       2.681307              0.0112931054            0.000614286676           
       2.683948              0.0139961873            0.000702637811           
       2.686588              0.0112067687            0.000618307189           
       2.689229              0.0100210476            0.000571328298           
       2.691869             0.00977431631            0.000596357241           
       2.694509             0.00926387489            0.000580895774           
       2.697150             0.00818578243            0.000537190343           
       2.699790               0.005995093            0.000481953332           
       2.702430             0.00771795947            0.000522710893           
       2.705071             0.00728268275             0.00052467113           
       2.707711             0.00612439072            0.000466983989           
       2.710352             0.00658597221            0.000511683532           
       2.712992             0.00738613195            0.000551895438           
       2.715632             0.00738363737            0.000511962995           
       2.718273             0.00724766688            0.000525672691           
       2.720913             0.00681779809            0.000508394567           
       2.723553             0.00719106182            0.000525629239           
       2.726194             0.00705489346            0.000544228763           
       2.728834             0.00764472551            0.000566788355           
       2.731475             0.00775672209            0.000526913745           
       2.734115             0.00725668538            0.000525464219           
       2.736755             0.00630697229            0.000493906139           
       2.739396             0.00691235983             0.00051407156           
       2.742036             0.00657744756            0.000524813125           
       2.744677             0.00728905001            0.000536051598           
       2.747317             0.00706839074            0.000524111237           
       2.749957             0.00796011656            0.000560092904           
       2.752598             0.00804436271            0.000569159502           
       2.755238              0.0074581801            0.000557923524           
       2.757878             0.00782735914            0.000566567987           
       2.760519             0.00887162052            0.000596782896           
       2.763159              0.0093448758            0.000606372944           
       2.765800             0.00883931732            0.000562015383           
       2.768440             0.00801337509            0.000539056451           
       2.771080             0.00884278867            0.000570993533           
       2.773721             0.00658761158            0.000505547132           
       2.776361             0.00668957758            0.000516472943           
       2.779001             0.00802085865            0.000585667676           
       2.781642             0.00690429149            0.000539371499           
       2.784282             0.00707944929            0.000555151611           
       2.786923             0.00846421605            0.000612367836           
       2.789563             0.00664703662            0.000522651607           
       2.792203             0.00707885948            0.000515244202           
       2.794844             0.00701621503             0.00056219502           
       2.797484             0.00756775446            0.000551034514           
       2.800125             0.00790193119            0.000592067647           
       2.802765             0.00646164756            0.000526186856           
       2.805405             0.00780034378            0.000580086381           
       2.808046             0.00771898068            0.000587197414           
       2.810686             0.00579587077            0.000467545688           
       2.813326             0.00691872089            0.000530612879           
       2.815967             0.00696256767            0.000547426165           
       2.818607             0.00528793719            0.000455257528           
       2.821248             0.00686363251            0.000507901776           
       2.823888             0.00707784089            0.000535378684           
       2.826528             0.00627967669            0.000488378783           
       2.829169             0.00690575361            0.000536444107           
       2.831809             0.00706157375             0.00054984113           
       2.834449              0.0059366295            0.000507332196           
       2.837090             0.00686812411            0.000527044562           
       2.839730             0.00708911731            0.000532842358           
       2.842371              0.0060615926            0.000493426391           
       2.845011             0.00778897331            0.000563789707           
       2.847651             0.00717440931            0.000541755292           
       2.850292             0.00704641633            0.000542170249           
       2.852932             0.00743697685            0.000569131752           
       2.855573             0.00622789187            0.000505207154           
       2.858213             0.00568541129            0.000506896581           
       2.860853             0.00738520892            0.000537415303           
       2.863494             0.00586504472            0.000495856354           
       2.866134             0.00723560479            0.000572440485           
       2.868774             0.00694415853             0.00055114476           
       2.871415             0.00585030762            0.000513757109           
       2.874055             0.00618867173            0.000505089822           
       2.876696             0.00669835287            0.000539690654           
       2.879336             0.00792148991             0.00056565904           
       2.881976             0.00605397376            0.000510048844           
       2.884617              0.0077546261             0.00056878267           
       2.887257             0.00707088543            0.000545932182           
       2.889897             0.00718715818            0.000539074674           
       2.892538             0.00673554759            0.000571703182           
       2.895178             0.00673571305            0.000516502075           
       2.897819             0.00645974463            0.000515975184           
       2.900459              0.0072833171            0.000537222376           
       2.903099             0.00647469408            0.000501338094           
       2.905740             0.00703142731            0.000535964584           
       2.908380             0.00735921607            0.000554545126           
       2.911021              0.0070442358            0.000551368816           
       2.913661             0.00637999334             0.00052457216           
       2.916301             0.00734793416            0.000563497142           
       2.918942             0.00617060345            0.000493934143           
       2.921582             0.00701396431            0.000550983114           
       2.924222             0.00787960265            0.000565778242           
       2.926863             0.00683140925            0.000548727388           
       2.929503             0.00753409257            0.000583085168           
       2.932144             0.00627196893            0.000510695503           
       2.934784             0.00643762133            0.000508911873           
       2.937424             0.00719234419            0.000543439478           
       2.940065             0.00657485052            0.000495637613           
       2.942705             0.00727179994              0.0005205915           
       2.945346             0.00827296895            0.000589285524           
       2.947986             0.00650295804            0.000532725336           
       2.950626             0.00686032775            0.000544086771           
       2.953267             0.00706979879             0.00054340661           
       2.955907             0.00642796434            0.000537512654           
       2.958547             0.00737862885            0.000543670029           
       2.961188             0.00842072599            0.000605930593           
       2.963828               0.008090081               0.000580959           
       2.966469             0.00671687546            0.000519302211           
       2.969109             0.00656753994            0.000521105212           
       2.971749             0.00763308323            0.000558285426           
       2.974390             0.00640552862            0.000502570765           
       2.977030             0.00759326607            0.000559413429           
       2.979670             0.00834113716            0.000570304499           
       2.982311             0.00928998177            0.000623806392           
       2.984951             0.00692757291            0.000512334538           
       2.987592             0.00749810479            0.000543690103           
       2.990232             0.00750810075            0.000565808622           
       2.992872             0.00796810652            0.000549043719           
       2.995513             0.00829171838            0.000547944571           
       2.998153               0.010741577            0.000634138997           
       3.000794              0.0115822932            0.000637813056           
       3.003434              0.0124327308            0.000661811987           
       3.006074              0.0468460067              0.0012666527           
       3.008715               0.119503483             0.00195289979           
       3.011355               0.182171751             0.00232515941           
       3.013995              0.0963470763             0.00169555346           
       3.016636               0.062270709             0.00133481755           
       3.019276               0.128386803             0.00188401658           
       3.021917               0.477870605             0.00349502976           
       3.024557                 1.6226047             0.00633187106           
       3.027197                1.16316487             0.00522669918           
       3.029838               0.517600539             0.00353607303           
       3.032478               0.267161631             0.00254303458           
       3.035118              0.0719426249             0.00133735328           
       3.037759              0.0929385783             0.00151806485           
       3.040399               0.128605366             0.00184205084           
       3.043040               0.520082821              0.0037497237           
       3.045680               0.403613326             0.00310792062           
       3.048320              0.0851876039             0.00145888997           
       3.050961               0.106463663             0.00165966628           
       3.053601              0.0848540066             0.00142704348           
       3.056242              0.0567384641             0.00124068026           
       3.058882              0.0459357768              0.0011975017           
       3.061522              0.0355031089             0.00103289358           
       3.064163              0.0428894405             0.00112097014           
       3.066803              0.0999860933             0.00180188972           
       3.069443              0.0999802901             0.00188518353           
       3.072084                0.05776044             0.00139524867           
       3.074724              0.0403566096             0.00130244109           
       3.077365              0.0801201061             0.00189970031           
       3.080005              0.0194344234            0.000940923128           
       3.082645              0.0101001338            0.000712586507           
       3.085286              0.0139740577             0.00084478907           
       3.087926             0.00965577325            0.000696819678           
       3.090566             0.00934912668             0.00067182001           
       3.093207              0.0117598301            0.000784067066           
       3.095847              0.0085436083            0.000640558093           
       3.098488             0.00754564809            0.000667499044           
       3.101128             0.00981132404            0.000766037843           
       3.103768              0.0103014015            0.000770169147           
       3.106409              0.0084824304            0.000743788603           
       3.109049             0.00964764584            0.000761225147           
       3.111690             0.00876650998            0.000713174173           
       3.114330             0.00885874656            0.000732167344           
       3.116970             0.00860163786            0.000727002988           
       3.119611              0.0125118679            0.000933308989           
       3.122251              0.0183886524             0.00118354547           
       3.124891              0.0344854185             0.00163589095           
       3.127532              0.0252194511             0.00136858732           
       3.130172              0.0174584366             0.00115837085           
       3.132813             0.00950777024            0.000841559428           
       3.135453             0.00612255949            0.000669760876           
       3.138093             0.00627053298            0.000734426931           
       3.140734              0.0077756559            0.000754514342           
       3.143374             0.00598420581             0.00070000409           
       3.146014              0.0065365311             0.00078759584           
       3.148655             0.00677745237            0.000745513722           
       3.151295             0.00548673715            0.000714819916           
       3.153936             0.00633726021            0.000742085429           
       3.156576             0.00548932669            0.000681263058           
       3.159216             0.00571843154              0.0006988124           
       3.161857             0.00608906747             0.00071816865           
       3.164497              0.0079304313            0.000861158488           
       3.167138             0.00936684952            0.000967017584           
       3.169778             0.00666151264            0.000802051438           
       3.172418             0.00651184482            0.000784924196           
       3.175059              0.0076693001            0.000755184452           
       3.177699             0.00616456011            0.000716964034           
       3.180339              0.0056391896            0.000734709099           
       3.182980             0.00614074194            0.000792675347           
       3.185620             0.00699915668            0.000861851653           
       3.188261             0.00615908852             0.00082290498           
       3.190901             0.00613842651            0.000755563202           
       3.193541             0.00562962682            0.000760300227           
       3.196182             0.00457071015            0.000713944844           
       3.198822             0.00569283056            0.000797044354           
       3.201463             0.00612126079            0.000812252982           
       3.204103             0.00489282323            0.000721772391           
       3.206743             0.00574672796            0.000782150013           
       3.209384             0.00358342764            0.000667297516           
       3.212024             0.00549173729            0.000770170892           
       3.214664             0.00459493594            0.000801100195           
       3.217305             0.00705270774            0.000943427929           
       3.219945             0.00533391569            0.000844458198           
       3.222586             0.00521155503            0.000795053138           
       3.225226             0.00627057924            0.000967459187           
       3.227866             0.00761552623            0.000974473881           
       3.230507             0.00602004258            0.000898121489           
       3.233147             0.00504814686            0.000829075496           
       3.235787             0.00638576264            0.000954265669           
       3.238428             0.00595202714            0.000994186225           
       3.241068             0.00666669181            0.000983841572           
       3.243709             0.00648168512             0.00100226153           
       3.246349             0.00593842819            0.000874528457           
       3.248989             0.00845663224             0.00123226727           
       3.251630             0.00717809563             0.00109326337           
       3.254270             0.00637247506            0.000920619188           
       3.256911             0.00394562884            0.000790411025           
       3.259551             0.00622420208             0.00106877609           
       3.262191             0.00572424154             0.00104693809           
       3.264832             0.00625360905             0.00114335583           
       3.267472             0.00770509982             0.00119057785           
       3.270112             0.00531462333             0.00109274108           
       3.272753             0.00656977624             0.00111206737           
       3.275393             0.00586994909             0.00107255964           
       3.278034             0.00667180408             0.00114411681           
       3.280674             0.00437880623             0.00100580062           
       3.283314             0.00815287167             0.00122743628           
       3.285955             0.00511108666              0.0010027382           
       3.288595             0.00636082449             0.00124452115           
       3.291235             0.00566170654             0.00120700412           
       3.293876             0.00368625892            0.000987925862           
       3.296516             0.00414242048             0.00100540237           
       3.299157             0.00740098698             0.00132698523           
       3.301797             0.00647838554             0.00141618608           
       3.304437             0.00650561373              0.0012295323           
       3.307078              0.0056288148             0.00125983327           
       3.309718             0.00478133505             0.00119849019           
       3.312359             0.00602448134             0.00134562138           
       3.314999             0.00494523446             0.00120035116           
       3.317639             0.00617075942             0.00128237002           
       3.320280             0.00510978029             0.00124068843           
       3.322920             0.00652624009             0.00142574516           
       3.325560              0.0058709459             0.00135319184           
       3.328201             0.00531866452             0.00115997458           
       3.330841             0.00263634669             0.00099394264           
       3.333482             0.00501936183             0.00129634804           
       3.336122             0.00566805584             0.00137820561           
       3.338762             0.00668681151              0.0017292059           
       3.341403             0.00324147217             0.00115042204           
       3.344043             0.00482899997             0.00134810335           
       3.346683             0.00352316719             0.00117558024           
       3.349324             0.00645218305             0.00178867902           
       3.351964             0.00605318494             0.00183204485           
       3.354605             0.00653024974             0.00217622221           
       3.357245             0.00115102378              0.0008242107           
       3.359885             0.00568026782             0.00146543338           
       3.362526             0.00707948808             0.00204588319           
       3.365166              0.0031450476             0.00128615808           
       3.367807             0.00607273894             0.00228725216           
       3.370447             0.00534962635             0.00178076696           
       3.373087             0.00334406661             0.00150560165           
       3.375728             0.00775881181             0.00258826929           
       3.378368             0.00386226979             0.00271021068           
       3.381008             0.00316305069             0.00182857577           
       3.383649             0.00341144727             0.00152339904           
       3.386289             0.00377180035             0.00189582931           
       3.388930             0.00481740232             0.00338902412           
       3.391570             0.00841152819             0.00316787577           
       3.394210               0.009575763             0.00427747374           
       3.396851             0.00710166774             0.00412054469           
       3.399491             0.00458547037             0.00331198598           
       3.402131             0.00465832514             0.00472289111           
       3.404772           -2.55936392e-05                         0           
       3.407412                       nan                       nan           
       3.410053           -2.56566765e-05                         0           
       3.412693                       nan                       nan           
       3.415333           -2.57057059e-05                         0           
