################################################################################
# EDF_DataBlockID                     0.Image.Psd
# EDF_BinarySize                      4366944
# EDF_HeaderSize                      2560
# ByteOrder                           LowByteFirst
# DataType                            FloatValue
# Dim_1                               1028
# Dim_2                               1062
# Image                               0
# HeaderID                            EH:000000:000000:000000
# Size                                4366944
# Center_1                            607.5200
# Center_2                            651.5500
# Comment                             Xenocs_Cell_Window - 20251028_20perc_iodine_1.23mg
# DDummy                              0.6
# Date                                2025-10-29T01:50:04
# Delta                               0
# Dummy                               -1.5
# ExposureTime                        360
# Gamma                               0
# Intensity1                          8.50504e-10
# PSize_1                             7.5e-05
# PSize_2                             7.5e-05
# Pressure                            0.0336618
# SampleDistance                      0.450002
# SampleEnvKind                       large
# SampleEnvPN                         ElectroChemical cell
# SampleEnvSN                         1141
# Thickness                           0
# Wavelength                          1.541891e-10
# Wavelength                          1.54189e-10
# aux                                 0
# aux_dial                            0.002375
# beamx                               588.434
# beamx_dial                          588.434
# beamz                               657.808
# beamz_dial                          657.808
# det0x                               0
# det0x_dial                          6.36945
# det0xvd                             0
# det0xvd_dial                        0
# det0y                               450.002
# det0y_dial                          481.635
# det0z                               0
# det0z_dial                          1.23302
# det0zvd                             0
# det0zvd_dial                        0
# mag                                 1.818
# mag_dial                            1.818
# om                                  0.2499
# om_dial                             -0.610199
# phi                                 -0.0120535
# phi_dial                            0
# ry                                  0.599993
# ry_dial                             0.599993
# s1bot                               0.8
# s1bot_dial                          -1.66094
# s1hl                                0.8
# s1hl_dial                           -0.608437
# s1hr                                0.8
# s1hr_dial                           0.970938
# s1top                               0.8
# s1top_dial                          -0.461562
# s2bot                               0.45
# s2bot_dial                          1.36109
# s2hl                                0.45
# s2hl_dial                           -0.83375
# s2hr                                0.45
# s2hr_dial                           -0.118594
# s2top                               0.45
# s2top_dial                          1.44734
# w2theta                             32
# w2theta_dial                        32
# waxsch                              19.2605
# waxsch_dial                         -32.7355
# waxsh                               137.085
# waxsh_dial                          -43.5338
# waxsth                              26.0607
# waxsth_dial                         -19.4086
# waxsz                               67.0407
# waxsz_dial                          -23.7954
# wind                                65.9854
# wind_dial                           66.0041
# wpsi                                124
# wpsi_dial                           124
# wstod                               115
# wstod_dial                          115
# x                                   0
# x_dial                              1.00969
# z                                   0
# z_dial                              13.3172
# CountCutoff                         15302352
# DetectorModel                       Dectris EIGER2 Si 1M, S/N E-02-0362
# ThresholdSetting                    4023.88989258
# Saturation                          0
# FlatField                           Corrected
# BackgroundReductionExtra            0.02
# BackgroundCorrectionConstant        0.0026712
# Detector                            0
# Monitor                             0
# Pil_Roi0                            0
# SumForIntensity1                    3.06182e+08
# TransmittedFlux                     850504
# det                                 0
# mon                                 0
# pilai0                              3.06182e+08
# pilai1                              772321
# pilct0                              5.30386e+08
# pilct1                              772321
# pilroi0                             0
# pilroi1                             0
# sec                                 1
# title                               20251028_20perc_iodine_1.23mg_0_00104.edf
# usaxs0                              0
# Operation                           Azimuthal average I(q)
# Error_model                         ErrorModel.poisson
# Geometrical_correction              True
# Transmission_correction             True
# Thickness_correction                False
# Binning mode                        Uniform
# Binning factor                      1.0
# Psi                                 0.0
# Omega                               0.2499
# MaskInvalidPixels                   True
# DetectorEdge                        3
# MaskFiles                           ['20251028_20perc_iodine_1.23mg_0_00012_mask.edf']
################################################################################
    q(A⁻¹)                Intensity(a.u.)            Sigma_I(a.u.)            
       0.000340                371803.271                120.714581           
       0.001019                360075.993                72.7471293           
       0.001698                350599.993                50.7586153           
       0.002377                330806.868                44.0997489           
       0.003056                306952.326                35.9021433           
       0.003735                253650.775                28.7826558           
       0.004415                205330.034                 25.896383           
       0.005094                153482.833                19.3898089           
       0.005773                101245.567                 14.580029           
       0.006452                 58911.438                10.6561287           
       0.007131                32347.3352                7.64939903           
       0.007810                16219.3274                5.37538262           
       0.008490                8116.22075                3.37056286           
       0.009169                3888.47922                2.30571729           
       0.009848                1200.91528                1.23887623           
       0.010527                464.621234               0.770586726           
       0.011206                118.191459               0.370935631           
       0.011885                55.1745248               0.235473953           
       0.012564                25.3495085               0.163866476           
       0.013244                16.8537722               0.124914794           
       0.013923                12.4645847               0.109157577           
       0.014602                9.35071153              0.0876843795           
       0.015281                7.57165443              0.0803200869           
       0.015960                6.20321079              0.0721793514           
       0.016639                5.02529309              0.0613479457           
       0.017319                 4.2489709               0.055533364           
       0.017998                 3.4394036              0.0477996854           
       0.018677                2.97633024              0.0460541928           
       0.019356                2.55701476              0.0421788115           
       0.020035                2.23406252              0.0369886636           
       0.020714                1.89554536              0.0344318458           
       0.021394                1.66758373               0.030556731           
       0.022073                1.46176537              0.0297653683           
       0.022752                 1.2939289              0.0267892872           
       0.023431                 1.1301554              0.0243025771           
       0.024110                1.02969655              0.0241849161           
       0.024789               0.912047116              0.0211387251           
       0.025469               0.811333144              0.0205457421           
       0.026148               0.749677871              0.0185564333           
       0.026827               0.709405671              0.0183400007           
       0.027506               0.674483394              0.0181407684           
       0.028185               0.587453531              0.0161451885           
       0.028864               0.561134711              0.0156908415           
       0.029544               0.476859017              0.0140266329           
       0.030223               0.460973526              0.0139887779           
       0.030902               0.406370428              0.0132543691           
       0.031581               0.392266201              0.0123791402           
       0.032260               0.340500894              0.0117299665           
       0.032939               0.314957659              0.0108777463           
       0.033619               0.312319033              0.0109912814           
       0.034298               0.282458837              0.0101721292           
       0.034977               0.253718518             0.00945127904           
       0.035656               0.246115821             0.00955495865           
       0.036335               0.231615134             0.00898996773           
       0.037014               0.230241459             0.00899000528           
       0.037693                0.21703863             0.00839664569           
       0.038373               0.175989931             0.00763523399           
       0.039052                0.18188181              0.0077950148           
       0.039731               0.165413437             0.00726050596           
       0.040410               0.161740907             0.00713131935           
       0.041089               0.146537703             0.00668156012           
       0.041768               0.147427656              0.0067368324           
       0.042448               0.129802297             0.00627226483           
       0.043127               0.136663456             0.00628389898           
       0.043806               0.126368725             0.00608764026           
       0.044485                0.12693949              0.0059760301           
       0.045164               0.116414922             0.00583572771           
       0.045843               0.121671517             0.00572214268           
       0.046523               0.112981273             0.00553304941           
       0.047202               0.110533033             0.00551101493           
       0.047881              0.0948666725             0.00500709131           
       0.048560               0.101983027             0.00523881648           
       0.049239              0.0942978622             0.00483696588           
       0.049918              0.0874697669             0.00474962327           
       0.050598              0.0873490905             0.00467513555           
       0.051277              0.0924386614             0.00479414922           
       0.051956              0.0888212802             0.00466989832           
       0.052635              0.0797066904             0.00432992588           
       0.053314              0.0802501889              0.0044716881           
       0.053993              0.0803515757             0.00435178876           
       0.054673              0.0811089931             0.00427485708           
       0.055352              0.0780722988             0.00425567381           
       0.056031              0.0732719978             0.00403614256           
       0.056710              0.0787915203             0.00428796545           
       0.057389              0.0693505246             0.00387930165           
       0.058068              0.0774483697             0.00414179645           
       0.058748              0.0758237666             0.00414924635           
       0.059427              0.0675504924             0.00385003653           
       0.060106              0.0707626651             0.00397780776           
       0.060785              0.0699562225             0.00383657304           
       0.061464              0.0643919687               0.003769555           
       0.062143              0.0688909916             0.00385941282           
       0.062822                0.06342812             0.00365977555           
       0.063502              0.0568640692             0.00345904242           
       0.064181              0.0599479845             0.00351409725           
       0.064860              0.0530359431             0.00335564889           
       0.065539              0.0589083664              0.0035019684           
       0.066218              0.0557346222             0.00333339086           
       0.066897              0.0551479523             0.00334139744           
       0.067577              0.0573513209             0.00344023093           
       0.068256              0.0505214048             0.00330820881           
       0.068935              0.0532921198             0.00334277396           
       0.069614              0.0485255149             0.00322153259           
       0.070293              0.0481831282              0.0032397483           
       0.070972                0.04775564               0.003201729           
       0.071652              0.0381884717             0.00286836382           
       0.072331              0.0486551279             0.00317996581           
       0.073010               0.042852906             0.00305252908           
       0.073689              0.0449449773             0.00310897452           
       0.074368              0.0463340964             0.00315091269           
       0.075047              0.0452660728             0.00308091113           
       0.075727              0.0421264854             0.00295379037           
       0.076406              0.0325888331             0.00264981974           
       0.077085              0.0384648431             0.00282501484           
       0.077764              0.0389874275             0.00283417452           
       0.078443               0.040495428             0.00290634983           
       0.079122              0.0360233369              0.0027148421           
       0.079802              0.0432489288             0.00300622931           
       0.080481              0.0453200663             0.00297356465           
       0.081160              0.0382516849             0.00278791126           
       0.081839               0.040533569             0.00282391712           
       0.082518              0.0382855957             0.00274680503           
       0.083197              0.0380051534             0.00269420347           
       0.083876              0.0363857327             0.00259237369           
       0.084556              0.0355437847             0.00263346281           
       0.085235              0.0345815989             0.00254738758           
       0.085914              0.0314053422             0.00245116608           
       0.086593              0.0323346229             0.00247115901           
       0.087272              0.0372140221             0.00261358982           
       0.087951              0.0384271902             0.00271584228           
       0.088631              0.0387069765             0.00263287217           
       0.089310              0.0300591093             0.00236939794           
       0.089989              0.0334280084             0.00246943739           
       0.090668              0.0300272239             0.00236628976           
       0.091347              0.0282732736             0.00230899582           
       0.092026              0.0346036138             0.00244163216           
       0.092706               0.032774139             0.00246246151           
       0.093385              0.0296069099             0.00230451453           
       0.094064              0.0310664009             0.00238810687           
       0.094743               0.032068325             0.00238933595           
       0.095422              0.0307994092             0.00231547561           
       0.096101              0.0298942077             0.00232817758           
       0.096781              0.0278403699             0.00221460739           
       0.097460               0.030595216             0.00225826273           
       0.098139              0.0315311976              0.0022749053           
       0.098818              0.0267683825             0.00207024945           
       0.099497              0.0283391494             0.00213449813           
       0.100176              0.0302185785             0.00214629266           
       0.100856              0.0276136878             0.00205038656           
       0.101535              0.0287317775             0.00208745144           
       0.102214              0.0254296734             0.00196384955           
       0.102893              0.0242472896             0.00189580103           
       0.103572              0.0271186829             0.00197529431           
       0.104251              0.0270442282             0.00197986801           
       0.104931              0.0259478347             0.00192166446           
       0.105610              0.0262883851             0.00194248454           
       0.106289              0.0266910315             0.00192473136           
       0.106968              0.0288077137             0.00200552842           
       0.107647              0.0254655973             0.00188673948           
       0.108326              0.0256088278             0.00186672656           
       0.109005               0.027866822             0.00193503349           
       0.109685              0.0262760049             0.00185791325           
       0.110364              0.0218391075             0.00171304234           
       0.111043              0.0215151562             0.00169354809           
       0.111722              0.0230246968             0.00173053848           
       0.112401              0.0245855646             0.00179320698           
       0.113080              0.0250441436             0.00178911348           
       0.113760              0.0270885288             0.00189178372           
       0.114439               0.027099326             0.00186515628           
       0.115118              0.0258365707             0.00180745012           
       0.115797              0.0215467197             0.00166588221           
       0.116476              0.0210281046             0.00162108025           
       0.117155              0.0226392429             0.00169560271           
       0.117835              0.0216922763             0.00162676596           
       0.118514              0.0257548177             0.00179503847           
       0.119193              0.0236862812             0.00172145666           
       0.119872              0.0220879145             0.00164156969           
       0.120551               0.021417913             0.00160571325           
       0.121230              0.0217941579             0.00160345539           
       0.121910              0.0229751655             0.00166223853           
       0.122589              0.0192930771             0.00152479711           
       0.123268              0.0251364397             0.00170673811           
       0.123947              0.0208773386              0.0015654971           
       0.124626              0.0201640232             0.00151970929           
       0.125305              0.0200142903             0.00152148621           
       0.125985              0.0210521849             0.00154832979           
       0.126664              0.0203035702              0.0015060675           
       0.127343              0.0211611472             0.00155536715           
       0.128022              0.0203630179             0.00151405103           
       0.128701              0.0221393947             0.00157048601           
       0.129380              0.0198687987             0.00146914047           
       0.130059              0.0224394118             0.00156491469           
       0.130739              0.0177928147              0.0014033004           
       0.131418              0.0196746023             0.00147151158           
       0.132097              0.0206780572             0.00148922323           
       0.132776              0.0213276109             0.00150560448           
       0.133455              0.0221101955             0.00154488852           
       0.134134              0.0188578124             0.00142220194           
       0.134814              0.0196329669             0.00143618543           
       0.135493              0.0198813147             0.00145108923           
       0.136172              0.0194688064             0.00142511617           
       0.136851              0.0194068767             0.00143112288           
       0.137530              0.0194759421             0.00139960561           
       0.138209              0.0203440295              0.0014472517           
       0.138889              0.0222034691              0.0015186097           
       0.139568              0.0210670357             0.00147859669           
       0.140247              0.0180774698             0.00136787787           
       0.140926              0.0192045684              0.0013695631           
       0.141605              0.0188711409             0.00139211334           
       0.142284              0.0226958656             0.00150138489           
       0.142964              0.0197892736             0.00140731562           
       0.143643              0.0179269652             0.00133776859           
       0.144322              0.0196601162             0.00137162842           
       0.145001              0.0182024972             0.00134689289           
       0.145680              0.0185481395             0.00132745411           
       0.146359              0.0205246652             0.00140150005           
       0.147039               0.019213178             0.00136714801           
       0.147718              0.0215901258             0.00142533628           
       0.148397              0.0189834764             0.00135729541           
       0.149076              0.0190935369             0.00131899686           
       0.149755              0.0193981686             0.00135000526           
       0.150434               0.019877438             0.00136713852           
       0.151114              0.0182859125             0.00130401277           
       0.151793              0.0189925919             0.00132898374           
       0.152472              0.0177933854             0.00126362104           
       0.153151              0.0190669918             0.00132070912           
       0.153830               0.017772026             0.00126578163           
       0.154509               0.017738366             0.00125930615           
       0.155188              0.0202198828             0.00134401243           
       0.155868               0.020010969             0.00132753659           
       0.156547              0.0166146382             0.00121741505           
       0.157226              0.0175928988             0.00122214518           
       0.157905               0.017540537              0.0012305753           
       0.158584              0.0181678662             0.00125011221           
       0.159263              0.0160245777             0.00117838002           
       0.159943              0.0195330712             0.00130197044           
       0.160622               0.018368442             0.00123819437           
       0.161301              0.0181171114             0.00124614174           
       0.161980               0.021806614             0.00134391039           
       0.162659              0.0181996134             0.00124135054           
       0.163338              0.0203327518             0.00130138912           
       0.164018              0.0159051686             0.00114496657           
       0.164697               0.016998339             0.00119885843           
       0.165376              0.0177830708             0.00119942761           
       0.166055              0.0176047613             0.00120126968           
       0.166734              0.0171311772             0.00117969364           
       0.167413              0.0166555177             0.00116401524           
       0.168093              0.0170020853             0.00118718805           
       0.168772              0.0170885771             0.00115539651           
       0.169451              0.0171657345             0.00117930725           
       0.170130              0.0160172501             0.00112421787           
       0.170809              0.0159898806             0.00113666188           
       0.171488               0.015424373             0.00110620399           
       0.172168              0.0165566452             0.00113507696           
       0.172847              0.0193085834             0.00124188699           
       0.173526              0.0163509581             0.00112102059           
       0.174205              0.0189946596             0.00121381725           
       0.174884              0.0169532935              0.0011407631           
       0.175563              0.0174110626             0.00116099778           
       0.176243              0.0173059953             0.00116907325           
       0.176922              0.0164709912             0.00111079912           
       0.177601              0.0167478986             0.00113240711           
       0.178280                0.01792645             0.00115849569           
       0.178959              0.0161258446             0.00110761214           
       0.179638              0.0154791116              0.0010820493           
       0.180317               0.016883689             0.00112184358           
       0.180997                0.01792093             0.00116206331           
       0.181676              0.0163243579             0.00109724938           
       0.182355              0.0147618168             0.00104968195           
       0.183034               0.016373611             0.00108776089           
       0.183713              0.0163320991             0.00109961157           
       0.184392              0.0175168665             0.00113845302           
       0.185072              0.0166581212             0.00109754416           
       0.185751              0.0172012812             0.00111839677           
       0.186430              0.0155323934             0.00105531514           
       0.187109              0.0176355974             0.00113701965           
       0.187788              0.0161566758             0.00108561757           
       0.188467                0.01542134             0.00104807357           
       0.189147              0.0174802541             0.00112714692           
       0.189826              0.0158469557              0.0010542192           
       0.190505              0.0163402217             0.00108812264           
       0.191184              0.0175605715             0.00111176623           
       0.191863              0.0160749919             0.00106594181           
       0.192542              0.0157345447             0.00106453885           
       0.193222              0.0174825131             0.00109696566           
       0.193901              0.0153736669             0.00104246689           
       0.194580              0.0163938605             0.00105766962           
       0.195259              0.0164169645             0.00107057035           
       0.195938              0.0175160747             0.00110846685           
       0.196617              0.0168705377             0.00107266453           
       0.197297              0.0154268825              0.0010299312           
       0.197976              0.0160718758             0.00103509381           
       0.198655              0.0149477003             0.00100914046           
       0.199334              0.0162066306             0.00104151107           
       0.200013              0.0165919985             0.00105323675           
       0.200692              0.0159809785             0.00103987895           
       0.201371              0.0174122356             0.00107322189           
       0.202051              0.0151184055             0.00100314497           
       0.202730              0.0150575419            0.000991124599           
       0.203409               0.015217405             0.00100306047           
       0.204088              0.0141203843            0.000965160285           
       0.204767              0.0133830034            0.000934683047           
       0.205446              0.0139711152             0.00095686558           
       0.206126              0.0143483707            0.000956523962           
       0.206805              0.0156272835             0.00101654334           
       0.207484              0.0154213239            0.000991668226           
       0.208163              0.0152363397            0.000991625752           
       0.208842              0.0147739375            0.000973816532           
       0.209521              0.0132480848            0.000914494753           
       0.210201              0.0151778304            0.000989758094           
       0.210880              0.0138108029            0.000925607305           
       0.211559              0.0145424969            0.000963853138           
       0.212238              0.0145389915            0.000958832977           
       0.212917              0.0151285186            0.000974445221           
       0.213596              0.0138381792            0.000937473647           
       0.214276              0.0149109394            0.000952858983           
       0.214955              0.0163676342             0.00101931236           
       0.215634              0.0135725092             0.00092155368           
       0.216313              0.0145173038            0.000951087857           
       0.216992              0.0159387786            0.000996314375           
       0.217671              0.0145366718            0.000945038808           
       0.218351              0.0163350609              0.0010115896           
       0.219030              0.0144752952            0.000937233476           
       0.219709                0.01454093            0.000945215378           
       0.220388              0.0148252204            0.000953184522           
       0.221067              0.0152536326            0.000967625311           
       0.221746              0.0151025119            0.000961833902           
       0.222426              0.0139327407            0.000910027033           
       0.223105              0.0146499015            0.000945866918           
       0.223784              0.0155348674            0.000964355379           
       0.224463               0.015614503            0.000974523438           
       0.225142              0.0164103944            0.000983243646           
       0.225821              0.0149188307            0.000941271423           
       0.226500              0.0156648551            0.000970651498           
       0.227180               0.015699723            0.000956760417           
       0.227859              0.0141542056            0.000912523194           
       0.228538              0.0144872353            0.000913925759           
       0.229217              0.0163655345            0.000979055668           
       0.229896              0.0146480169            0.000925811508           
       0.230575              0.0156098359            0.000940488751           
       0.231255              0.0145782485            0.000922488723           
       0.231934              0.0145326917            0.000914753657           
       0.232613              0.0155118162            0.000948553414           
       0.233292              0.0130509737            0.000861659012           
       0.233971              0.0152867407            0.000932113298           
       0.234650               0.015498121            0.000949575096           
       0.235330              0.0164970702            0.000971145155           
       0.236009              0.0135867949             0.00087943168           
       0.236688              0.0146680185            0.000910483998           
       0.237367              0.0138036413            0.000884532398           
       0.238046              0.0139743896            0.000896254043           
       0.238725               0.014369811            0.000894824341           
       0.239405              0.0151804162              0.0009254199           
       0.240084              0.0149877413             0.00091367308           
       0.240763               0.014472983            0.000906442949           
       0.241442              0.0154391176             0.00092301712           
       0.242121              0.0138503026            0.000875885127           
       0.242800              0.0146035267            0.000903644444           
       0.243480               0.014296861            0.000889919633           
       0.244159              0.0149687675            0.000911031833           
       0.244838              0.0153322717            0.000906855673           
       0.245517              0.0143651113            0.000890414161           
       0.246196              0.0123234241            0.000825111458           
       0.246875               0.013492421            0.000851324819           
       0.247554              0.0138625424            0.000871692581           
       0.248234              0.0149278626            0.000890850898           
       0.248913              0.0147209457            0.000894578535           
       0.249592              0.0139046159            0.000861159401           
       0.250271              0.0143651179            0.000872761833           
       0.250950              0.0128754405            0.000831331179           
       0.251629               0.013441736            0.000842196988           
       0.252309              0.0143995719              0.0008734566           
       0.252988              0.0120546941            0.000785413825           
       0.253667              0.0140319316            0.000857282565           
       0.254346              0.0146945028            0.000877108518           
       0.255025              0.0127519513            0.000815289439           
       0.255704              0.0133531568            0.000830465883           
       0.256384              0.0139371741            0.000845497098           
       0.257063              0.0151975298            0.000887933286           
       0.257742              0.0147040251            0.000867345901           
       0.258421              0.0148215596            0.000869129323           
       0.259100              0.0134677172            0.000829929359           
       0.259779              0.0120734892            0.000785131179           
       0.260459              0.0130031691            0.000816398987           
       0.261138              0.0142066742            0.000836667509           
       0.261817              0.0139310469            0.000845235762           
       0.262496              0.0136518291             0.00082851658           
       0.263175              0.0125450816            0.000795929014           
       0.263854              0.0123771191            0.000786909841           
       0.264534              0.0115278721             0.00075294737           
       0.265213               0.011651734            0.000768910753           
       0.265892              0.0123917999              0.0007827946           
       0.266571              0.0117477272            0.000760446742           
       0.267250              0.0118158417            0.000763932867           
       0.267929              0.0122345359            0.000776552939           
       0.268609              0.0124298154            0.000787011471           
       0.269288              0.0119252682            0.000758067025           
       0.269967              0.0117993958            0.000762180082           
       0.270646              0.0133335873            0.000806714341           
       0.271325              0.0125002286            0.000782402073           
       0.272004              0.0117715707            0.000751687446           
       0.272683              0.0111256701            0.000731677106           
       0.273363              0.0134074917            0.000808334708           
       0.274042              0.0113315913            0.000738742362           
       0.274721              0.0126055716            0.000778701955           
       0.275400              0.0124700524            0.000769376815           
       0.276079              0.0121873868            0.000764925783           
       0.276758              0.0119225603            0.000766116997           
       0.277438              0.0111252679            0.000731750406           
       0.278117              0.0121842082            0.000779708939           
       0.278796              0.0110472827            0.000734904378           
       0.279475              0.0104048746            0.000724998689           
       0.280154              0.0106453923            0.000722781874           
       0.280833               0.011321223            0.000749904852           
       0.281513              0.0112513099            0.000759314406           
       0.282192              0.0112965554            0.000747859431           
       0.282871              0.0122340193             0.00078371064           
       0.283550              0.0105073614            0.000730195493           
       0.284229              0.0123732014            0.000804017713           
       0.284908             0.00995768987            0.000728887828           
       0.285588             0.00951886524            0.000704301083           
       0.286267              0.0114490918            0.000784783776           
       0.286946              0.0110677679            0.000766586297           
       0.287625             0.00828514806            0.000674549035           
       0.288304              0.0106851315            0.000755790147           
       0.288983              0.0106881818            0.000765470438           
       0.289663              0.0103094889            0.000756187551           
       0.290342              0.0113009003            0.000787498055           
       0.291021              0.0108814226            0.000776907441           
       0.291700              0.0100319756            0.000736222102           
       0.292379              0.0102479878            0.000761143282           
       0.293058              0.0107346754            0.000776064828           
       0.293738              0.0106972069            0.000768203695           
       0.294417             0.00950472492            0.000732537317           
       0.295096              0.0122549757             0.00082265063           
       0.295775             0.00860404522            0.000699830615           
       0.296454              0.0113716379            0.000794143736           
       0.297133             0.00913738166             0.00071523422           
       0.297812              0.0110394984            0.000790105038           
       0.298492             0.00887003583            0.000709595963           
       0.299171              0.0105884768            0.000773825026           
       0.299850             0.00994760637            0.000744919822           
       0.300529             0.00963819137            0.000741502736           
       0.301208             0.00947103841            0.000736833394           
       0.301887             0.00967422487            0.000743810323           
       0.302567             0.00895479834            0.000712035181           
       0.303246             0.00976062281            0.000748235866           
       0.303925             0.00873759729            0.000717028654           
       0.304604               0.010368526            0.000764220388           
       0.305283             0.00923952815            0.000732114163           
       0.305962             0.00866302257            0.000704623364           
       0.306642              0.0100253697              0.0007683006           
       0.307321             0.00961051831             0.00074983442           
       0.308000             0.00932971645            0.000730041649           
       0.308679             0.00933632767            0.000746115356           
       0.309358             0.00954630953            0.000744253436           
       0.310037             0.00886718074            0.000718889979           
       0.310717             0.00833541631            0.000696330239           
       0.311396              0.0082910023            0.000699130197           
       0.312075             0.00874780893            0.000727238592           
       0.312754              0.0101108384            0.000766204113           
       0.313433             0.00947808655            0.000748293529           
       0.314112              0.0092356076             0.00073849012           
       0.314792             0.00931347103            0.000746833562           
       0.315471             0.00749692923            0.000661767619           
       0.316150             0.00896318414            0.000730290805           
       0.316829              0.0106581158            0.000801610423           
       0.317508             0.00886719284            0.000722961808           
       0.318187             0.00826015155            0.000706981225           
       0.318866             0.00820939839            0.000695311412           
       0.319546             0.00858402656            0.000721657051           
       0.320225             0.00834009845            0.000711343572           
       0.320904             0.00743747289            0.000661361594           
       0.321583             0.00759732286            0.000683159645           
       0.322262             0.00873321325            0.000721350623           
       0.322941             0.00841875495            0.000717318451           
       0.323621             0.00770090965            0.000681868402           
       0.324300             0.00839372903            0.000712438335           
       0.324979             0.00719744416            0.000660911645           
       0.325658             0.00698235345            0.000652142247           
       0.326337             0.00821523667            0.000708301174           
       0.327016             0.00835903289            0.000709937265           
       0.327696             0.00842311537            0.000720579312           
       0.328375             0.00814818825            0.000702741586           
       0.329054             0.00720892382            0.000664583368           
       0.329733             0.00774149225            0.000691209553           
       0.330412             0.00762666752            0.000680442959           
       0.331091             0.00665592544             0.00064719598           
       0.331771             0.00791216093            0.000687143514           
       0.332450             0.00829183179             0.00071709426           
       0.333129             0.00788063225            0.000697283581           
       0.333808             0.00728099878            0.000671116655           
       0.334487             0.00708949101            0.000665371704           
       0.335166             0.00767476157                0.00068216           
       0.335846             0.00809035093            0.000712694066           
       0.336525             0.00736756522            0.000673398798           
       0.337204             0.00727586543            0.000670949362           
       0.337883             0.00716560088            0.000666728496           
       0.338562             0.00682959172            0.000654520813           
       0.339241             0.00734193964            0.000679899204           
       0.339921              0.0062386145            0.000616223657           
       0.340600             0.00714240664            0.000671872246           
       0.341279             0.00592870699            0.000605576157           
       0.341958             0.00667430356            0.000651592502           
       0.342637              0.0065300557            0.000635407658           
       0.343316             0.00751473976            0.000683607067           
       0.343995             0.00583866714            0.000612435057           
       0.344675             0.00641006768             0.00062991057           
       0.345354             0.00667586123            0.000647077857           
       0.346033             0.00604904426            0.000614345501           
       0.346712             0.00529938265            0.000578687748           
       0.347391              0.0065217705            0.000645944453           
       0.348070             0.00607998901            0.000614825655           
       0.348750             0.00717053236             0.00067733998           
       0.349429              0.0071616196            0.000668179996           
       0.350108             0.00598519481            0.000618189837           
       0.350787             0.00649878832             0.00063322398           
       0.351466             0.00581583442            0.000610062886           
       0.352145              0.0066524507            0.000653009743           
       0.352825             0.00610033462            0.000622492377           
       0.353504             0.00627155426            0.000631012963           
       0.354183             0.00426832045             0.00051457253           
       0.354862             0.00506503274            0.000573568901           
       0.355541             0.00632359256            0.000632486278           
       0.356220             0.00525783407            0.000577819468           
       0.356900             0.00581336319            0.000613349627           
       0.357579             0.00522004968            0.000574081435           
       0.358258             0.00577709402            0.000612293553           
       0.358937             0.00604790246             0.00061470215           
       0.359616             0.00482529334            0.000556732875           
       0.360295             0.00527112912            0.000582369311           
       0.360975             0.00573912045            0.000605073269           
       0.361654             0.00528475878              0.0005836213           
       0.362333             0.00682751155            0.000659987715           
       0.363012             0.00521624346            0.000584299727           
       0.363691             0.00602991307            0.000615826533           
       0.364370             0.00502904138            0.000569377095           
       0.365050             0.00483393115            0.000555235792           
       0.365729             0.00526938006            0.000585232418           
       0.366408             0.00541303516            0.000594469515           
       0.367087             0.00479815869            0.000550711889           
       0.367766              0.0050156917            0.000574789054           
       0.368445             0.00488592592            0.000557232614           
       0.369124             0.00438899042            0.000532284432           
       0.369804             0.00488856213            0.000560862681           
       0.370483              0.0062380657            0.000636336762           
       0.371162             0.00518223471            0.000583352706           
       0.371841              0.0046674587            0.000543968776           
       0.372520             0.00462325488            0.000552238674           
       0.373199             0.00431877082            0.000527367132           
       0.373879             0.00448879477            0.000543872585           
       0.374558             0.00595044444            0.000617053654           
       0.375237             0.00531596335            0.000584185213           
       0.375916             0.00481212397            0.000566459963           
       0.376595             0.00518250839            0.000576366453           
       0.377274             0.00416629635            0.000525049743           
       0.377954             0.00461891292            0.000544150165           
       0.378633             0.00493797126            0.000569740457           
       0.379312             0.00493942931            0.000569680712           
       0.379991              0.0044892509            0.000540289349           
       0.380670             0.00431814132             0.00053925836           
       0.381349             0.00569722336            0.000610518935           
       0.382029             0.00403995873            0.000521476215           
       0.382708             0.00624910473            0.000634404145           
       0.383387             0.00426412572            0.000535925414           
       0.384066             0.00417188303            0.000525233221           
       0.384745             0.00461718305            0.000554726062           
       0.385424              0.0039009567            0.000511620734           
       0.386104             0.00446712309            0.000541440109           
       0.386783             0.00427505045            0.000541128831           
       0.387462             0.00436906796            0.000533437934           
       0.388141             0.00504758402            0.000582522736           
       0.388820             0.00424201429            0.000530159299           
       0.389499             0.00442730082            0.000544662968           
       0.390178             0.00475471576            0.000566691413           
       0.390858             0.00486282285            0.000568460255           
       0.391537             0.00435784239            0.000543630559           
       0.392216             0.00536319188            0.000595527526           
       0.392895              0.0047872971            0.000564541655           
       0.393574             0.00497842939            0.000574273967           
       0.394253             0.00362364373            0.000492147283           
       0.394933             0.00413286342            0.000531596993           
       0.395612             0.00430382475             0.00052672301           
       0.396291             0.00424063274            0.000533486211           
       0.396970              0.0031762244            0.000457613149           
       0.397649             0.00504838238            0.000578700827           
       0.398328             0.00395666966            0.000510069924           
       0.399008              0.0039943797             0.00051138104           
       0.399687             0.00316957356            0.000457305103           
       0.400366             0.00445648581            0.000540178907           
       0.401045             0.00358825889            0.000483794962           
       0.401724             0.00393016818            0.000507165077           
       0.402403               0.004668323            0.000557052364           
       0.403083             0.00406666747            0.000512421034           
       0.403762             0.00483505623            0.000561493451           
       0.404441             0.00437078858            0.000537255776           
       0.405120             0.00374299464            0.000495546364           
       0.405799             0.00383935998            0.000499704533           
       0.406478             0.00318428214            0.000455093413           
       0.407158             0.00440228593            0.000534094453           
       0.407837             0.00519947008            0.000585564737           
       0.408516             0.00336526709             0.00046699314           
       0.409195             0.00355893938            0.000485690833           
       0.409874             0.00319722514            0.000466752883           
       0.410553             0.00461293538            0.000566676248           
       0.411233             0.00400013131            0.000524961279           
       0.411912             0.00292351531            0.000455148612           
       0.412591             0.00298625802            0.000463051202           
       0.413270             0.00294799371            0.000457889272           
       0.413949             0.00351874171            0.000505718164           
       0.414628             0.00286417053            0.000455442801           
       0.415307             0.00352615306            0.000510962702           
       0.415987             0.00324167791            0.000485880977           
       0.416666             0.00327835986            0.000485682465           
       0.417345             0.00398236233            0.000544235669           
       0.418024             0.00265233289            0.000444162301           
       0.418703             0.00300073049            0.000471566118           
       0.419382             0.00334633357            0.000495541777           
       0.420062             0.00446332127            0.000573904762           
       0.420741             0.00340432182              0.0005038828           
       0.421420             0.00283339235            0.000461436064           
       0.422099             0.00275427927            0.000454960246           
       0.422778             0.00248032055            0.000434079088           
       0.423457             0.00290032977            0.000472268255           
       0.424137              0.0034573357            0.000507224216           
       0.424816             0.00193505781            0.000387399513           
       0.425495             0.00262604714            0.000450871013           
       0.426174              0.0023010445             0.00042219745           
       0.426853             0.00264920904            0.000450261849           
       0.427532             0.00301310248            0.000484250843           
       0.428212             0.00196244161            0.000393386319           
       0.428891             0.00282167918            0.000470636677           
       0.429570             0.00242933409            0.000436990925           
       0.430249             0.00255359203             0.00044570124           
       0.430928             0.00317005142            0.000507452934           
       0.431607             0.00258362436            0.000450246387           
       0.432287              0.0019823052            0.000397273856           
       0.432966             0.00250854808            0.000450836741           
       0.433645             0.00170884962             0.00037248887           
       0.434324             0.00279603231            0.000473594504           
       0.435003             0.00217570914            0.000418482309           
       0.435682             0.00228790843            0.000432656659           
       0.436361             0.00229293186            0.000432551695           
       0.437041             0.00179081967            0.000381758226           
       0.437720             0.00181132949            0.000385789978           
       0.438399             0.00141574759            0.000342851073           
       0.439078             0.00275392432             0.00049204312           
       0.439757             0.00227220395            0.000444188275           
       0.440436             0.00249302018               0.000475757           
       0.441116             0.00183975571            0.000415380884           
       0.441795             0.00174628861            0.000405179401           
       0.442474             0.00315738523             0.00054633931           
       0.443153             0.00224691693            0.000471636834           
       0.443832             0.00154897026            0.000392253807           
       0.444511             0.00303398852            0.000546501453           
       0.445191             0.00319865238            0.000574784287           
       0.445870             0.00214763248            0.000470991649           
       0.446549             0.00200311076            0.000459664964           
       0.447228             0.00186178694            0.000440649136           
       0.447907             0.00223298422            0.000488372265           
       0.448586             0.00236260187            0.000514433558           
       0.449266             0.00309213929            0.000583109769           
       0.449945             0.00240208398            0.000511846633           
       0.450624             0.00254514557            0.000535235169           
       0.451303             0.00233055524            0.000518813784           
       0.451982             0.00241102689            0.000524432664           
       0.452661             0.00276254826            0.000571821053           
       0.453341             0.00217436861             0.00050908592           
       0.454020             0.00218768178            0.000511420217           
       0.454699             0.00210134428            0.000505804787           
       0.455378             0.00187279711            0.000477763201           
       0.456057             0.00182297989            0.000479749035           
       0.456736             0.00143020667            0.000423609975           
       0.457416             0.00281980279            0.000594823995           
       0.458095             0.00187054277            0.000491476787           
       0.458774             0.00126419698            0.000409381761           
       0.459453             0.00181574686            0.000493098432           
       0.460132             0.00248314498            0.000564189759           
       0.460811             0.00312376101            0.000656404354           
       0.461490             0.00210789365             0.00053372471           
       0.462170             0.00174672742             0.00049343566           
       0.462849             0.00150857368            0.000461539554           
       0.463528              0.0017743604            0.000499388234           
       0.464207             0.00112918099            0.000405835665           
       0.464886             0.00110500091            0.000398340824           
       0.465565             0.00112611717             0.00040654634           
       0.466245             0.00203657286            0.000548420675           
       0.466924             0.00106650719            0.000406242434           
       0.467603             0.00175360091            0.000509868197           
       0.468282             0.00244987395            0.000616939647           
       0.468961             0.00124962504            0.000443510948           
       0.469640              0.0023915809             0.00061600767           
       0.470320             0.00237108393            0.000613786191           
       0.470999             0.00258548512            0.000646981276           
       0.471678             0.00165013156            0.000521836565           
       0.472357             0.00134082519            0.000471706693           
       0.473036              0.0016819627            0.000531651246           
       0.473715             0.00138465553            0.000486153848           
       0.474395             0.00107184435            0.000433641589           
       0.475074             0.00106759837            0.000432794432           
       0.475753             0.00104665258            0.000424830132           
       0.476432            0.000777403366            0.000379461002           
       0.477111             0.00113299568            0.000452557947           
       0.477790             0.00167845533            0.000553769728           
       0.478470              0.0013569575             0.00050450218           
       0.479149             0.00063641489            0.000349075234           
       0.479828            0.000432706112            0.000287158593           
       0.480507             0.00200504293            0.000623124021           
       0.481186            0.000881108493            0.000422385159           
       0.481865            0.000265047559            0.000228793825           
       0.482545            0.000886482264            0.000423339743           
       0.483224            0.000486410452            0.000315727868           
       0.483903               0.000921908            0.000441512318           
       0.484582             0.00055009724            0.000346596675           
       0.485261            0.000700237891            0.000381138242           
       0.485940            0.000772067903            0.000416354257           
       0.486619           -0.000101626628                         0           
       0.487299            0.000130300759            0.000171859568           
       0.487978            -0.00010097765                         0           
       0.488657            0.000153212423             0.00019207073           
       0.489336            0.000351580441             0.00028585421           
       0.490015            0.000127380962            0.000173414008           
       0.490694           -0.000321006882                         0           
       0.491374             0.00063667856             0.00039356248           
       0.492053           -0.000321045782                         0           
       0.492732           -0.000321065197                         0           
       0.493411           -0.000321084863                         0           
       0.494090           -7.75132158e-05                         0           
       0.494769           -5.25569214e-05                         0           
       0.495449           -0.000321143759                         0           
       0.496128           -0.000321163506                         0           
       0.496807           -0.000321183036                         0           
       0.497486           -0.000321202747                         0           
       0.498165           -0.000321222741                         0           
       0.498844            0.000257303721            0.000271109808           
       0.499524            -0.00032126222                         0           
       0.500203           -0.000321282319                         0           
       0.500882           -1.48128561e-05                         0           
       0.501561           -0.000321321789                         0           
       0.502240           -2.13501043e-05                         0           
       0.502919            -0.00032136176                         0           
       0.503599           -0.000321381781                         0           
       0.504278           -0.000321402083                         0           
       0.504957           -0.000321422147                         0           
       0.505636           -0.000321442082                         0           
       0.506315            1.23540442e-05             6.3821938e-05           
       0.506994           -0.000321482246                         0           
       0.507673           -0.000321502107                         0           
       0.508353            0.000998859827            0.000577099995           
       0.509032            4.41408834e-05            0.000127083333           
       0.509711           -0.000321562779                         0           
       0.510390           -0.000321583298                         0           
       0.511069           -0.000321603748                         0           
       0.511748           -0.000321624116                         0           
       0.512428            6.25869201e-05            0.000154921577           
       0.513107            6.10614669e-05            0.000152783663           
       0.513786           -0.000321685088                         0           
       0.514465           -0.000321705695                         0           
       0.515144           -0.000321726287                         0           
       0.515823           -0.000321746692                         0           
       0.516503           -0.000321767288                         0           
       0.517182           -0.000321787882                         0           
       0.517861            0.000104541931            0.000211708159           
       0.518540           -0.000321829087                         0           
       0.519219            0.000115501997            0.000224958131           
       0.519898            0.000140902592            0.000257027873           
       0.520578           -0.000321891248                         0           
       0.521257           -0.000321911852                         0           
       0.521936           -0.000321932504                         0           
       0.522615           -0.000321953404                         0           
       0.523294           -0.000321974382                         0           
       0.523973            -0.00032199507                         0           
       0.524653           -0.000322015609                         0           
       0.525332           -0.000322036446                         0           
       0.526011           -0.000322057659                         0           
       0.526690            0.000166908373            0.000286605091           
       0.527369           -0.000322099828                         0           
       0.528048           -0.000322120975                         0           
       0.528728           -0.000322142096                         0           
       0.529407            -0.00032216312                         0           
       0.530086           -0.000322184036                         0           
       0.530765           -0.000322204981                         0           
       0.531444           -0.000322226152                         0           
       0.532123           -0.000322247697                         0           
       0.532802           -0.000322269068                         0           
       0.533482           -0.000322290364                         0           
       0.534161           -0.000322311695                         0           
       0.534840            0.000263192261            0.000394566804           
       0.535519           -0.000322354384                         0           
       0.536198           -0.000322375701                         0           
       0.536877           -0.000322396724                         0           
       0.537557           -0.000322418109                         0           
       0.538236           -0.000322439687                         0           
       0.538915           -0.000322461256                         0           
       0.539594           -0.000322482797                         0           
       0.540273           -0.000322504674                         0           
       0.540952           -0.000322526308                         0           
       0.541632            0.000368810385            0.000505906906           
       0.542311           -0.000322568979                         0           
       0.542990           -0.000322590652                         0           
       0.543669            0.000321891035            0.000454739736           
       0.544348           -0.000322634335                         0           
       0.545027           -0.000322656116                         0           
       0.545707           -0.000322677963                         0           
       0.546386           -0.000322699871                         0           
       0.547065           -0.000322721516                         0           
       0.547744            -0.00032274326                         0           
       0.548423            0.000400911531            0.000536982094           
       0.549102            -0.00032278725                         0           
       0.549782            0.000420448473            0.000558318852           
       0.550461           -0.000322831299                         0           
       0.551140           -0.000322853587                         0           
       0.551819            0.000502975018            0.000652033035           
       0.552498           -0.000322897825                         0           
       0.553177           -0.000322919657                         0           
       0.553856             0.00148880022             0.00116332525           
       0.554536             0.00133056637             0.00104970046           
       0.555215           -0.000322985866                         0           
       0.555894            -0.00032300813                         0           
       0.556573           -0.000323030527                         0           
       0.557252           -0.000323052906                         0           
       0.557931           -0.000323075182                         0           
       0.558611            -0.00032309798                         0           
       0.559290           -0.000323120198                         0           
       0.559969            -0.00032314187                         0           
       0.560648           -0.000323164116                         0           
       0.561327           -0.000323186857                         0           
       0.562006           -0.000323209493                         0           
       0.562686           -0.000323232142                         0           
       0.563365           -0.000323254875                         0           
       0.564044           -0.000323277492                         0           
       0.564723            -0.00032330006                         0           
       0.565402           -0.000323322207                         0           
       0.566081           -0.000323344502                         0           
       0.566761           -0.000323367036                         0           
       0.567440           -0.000323390029                         0           
       0.568119            -0.00032341284                         0           
       0.568798             0.00112684755             0.00128213715           
       0.569477           -0.000323458954                         0           
       0.570156           -0.000323482048                         0           
       0.570836           -0.000323505056                         0           
       0.571515           -0.000323527577                         0           
       0.572194           -0.000323550751                         0           
       0.572873           -0.000323573394                         0           
       0.573552           -0.000323595905                         0           
       0.574231           -0.000323618872                         0           
       0.574911           -0.000323642418                         0           
       0.575590           -0.000323665511                         0           
       0.576269              0.0015323278             0.00169016696           
       0.576948           -0.000323711998                         0           
       0.577627           -0.000323734746                         0           
       0.578306           -0.000323757816                         0           
       0.578985           -0.000323781083                         0           
       0.579665           -0.000323804216                         0           
       0.580344             -0.0003238277                         0           
       0.581023           -0.000323851157                         0           
       0.581702           -0.000323874398                         0           
       0.582381           -0.000323897427                         0           
       0.583060           -0.000323921144                         0           
       0.583740           -0.000323944488                         0           
       0.584419            -0.00032396791                         0           
       0.585098           -0.000323991303                         0           
       0.585777           -0.000324014879                         0           
       0.586456           -0.000324038839                         0           
       0.587135           -0.000324062161                         0           
       0.587815           -0.000324085232                         0           
       0.588494           -0.000324109022                         0           
       0.589173           -0.000324133357                         0           
       0.589852             -0.0003241564                         0           
       0.590531           -0.000324180312                         0           
       0.591210           -0.000324203671                         0           
       0.591890           -0.000324227482                         0           
       0.592569           -0.000324250497                         0           
       0.593248           -0.000324275658                         0           
       0.593927           -0.000324299581                         0           
       0.594606           -0.000324323995                         0           
       0.595285           -0.000324346956                         0           
       0.595965           -0.000324368381                         0           
       0.596644           -0.000324390429                         0           
