################################################################################
# EDF_DataBlockID                     0.Image.Psd
# EDF_BinarySize                      2105344
# EDF_HeaderSize                      2560
# ByteOrder                           LowByteFirst
# DataType                            FloatValue
# Dim_1                               512
# Dim_2                               1028
# Image                               0
# HeaderID                            EH:000000:000000:000000
# Size                                2105344
# Center_1                            304.9000
# Center_2                            588.7000
# Comment                             Xenocs_Cell_Window - 20251028_20perc_iodine_1.23mg
# DDummy                              0.6
# Date                                2025-11-02T11:19:33
# Delta                               21.910000
# Dummy                               -1.5
# ExposureTime                        360
# Gamma                               15.360000
# Intensity1                          8.76163e-10
# PSize_1                             7.5e-05
# PSize_2                             7.5e-05
# Pressure                            0.032568
# SampleDistance                      0.115750
# SampleEnvKind                       large
# SampleEnvPN                         ElectroChemical cell
# SampleEnvSN                         1141
# Thickness                           0
# Wavelength                          1.541891e-10
# Wavelength                          1.54189e-10
# aux                                 0
# aux_dial                            0.002375
# beamx                               588.434
# beamx_dial                          588.434
# beamz                               657.808
# beamz_dial                          657.808
# det0x                               0
# det0x_dial                          6.36945
# det0xvd                             0
# det0xvd_dial                        0
# det0y                               450.002
# det0y_dial                          481.635
# det0z                               0
# det0z_dial                          1.23302
# det0zvd                             0
# det0zvd_dial                        0
# mag                                 1.818
# mag_dial                            1.818
# om                                  0.2499
# om_dial                             -0.610199
# phi                                 -0.0120535
# phi_dial                            0
# ry                                  0.599993
# ry_dial                             0.599993
# s1bot                               0.8
# s1bot_dial                          -1.66094
# s1hl                                0.8
# s1hl_dial                           -0.608437
# s1hr                                0.8
# s1hr_dial                           0.970938
# s1top                               0.8
# s1top_dial                          -0.461562
# s2bot                               0.45
# s2bot_dial                          1.36109
# s2hl                                0.45
# s2hl_dial                           -0.83375
# s2hr                                0.45
# s2hr_dial                           -0.118594
# s2top                               0.45
# s2top_dial                          1.44734
# w2theta                             32
# w2theta_dial                        32
# waxsch                              19.2605
# waxsch_dial                         -32.7355
# waxsh                               137.085
# waxsh_dial                          -43.5338
# waxsth                              26.0607
# waxsth_dial                         -19.4086
# waxsz                               67.0407
# waxsz_dial                          -23.7954
# wind                                65.9854
# wind_dial                           66.0041
# wpsi                                124
# wpsi_dial                           124
# wstod                               115
# wstod_dial                          115
# x                                   0
# x_dial                              1.00969
# z                                   0
# z_dial                              13.3172
# CountCutoff                         6807993
# DetectorModel                       Dectris EIGER2 Si 500K, S/N E-01-0554
# ThresholdSetting                    4023.88989258
# Saturation                          0
# FlatField                           Corrected
# BackgroundReductionExtra            0.02
# BackgroundCorrectionConstant        0.0026712
# Detector                            0
# Monitor                             0
# Pil_Roi0                            0
# SumForIntensity1                    3.15419e+08
# TransmittedFlux                     876163
# det                                 0
# mon                                 0
# pilai0                              3.15419e+08
# pilai1                              793942
# pilct0                              5.45543e+08
# pilct1                              793942
# pilroi0                             0
# pilroi1                             0
# sec                                 1
# title                               20251028_20perc_iodine_1.23mg_1_01063.edf
# usaxs0                              0
# Operation                           Azimuthal average I(q)
# Error_model                         ErrorModel.poisson
# Geometrical_correction              True
# Transmission_correction             True
# Thickness_correction                False
# Binning mode                        Uniform
# Binning factor                      1.0
# Psi                                 0.0
# Omega                               0.2499
# MaskInvalidPixels                   True
# DetectorEdge                        3
# MaskFiles                           ['WAXS_corrected.edf']
################################################################################
    q(A⁻¹)                Intensity(a.u.)            Sigma_I(a.u.)            
       0.693100               0.008062347              0.0059136056           
       0.695741             0.00812675546             0.00484493471           
       0.698381             0.00407147758              0.0042006666           
       0.701021           -2.31363672e-05                         0           
       0.703662             0.00553672568             0.00399724107           
       0.706302             0.00332766215              0.0023991677           
       0.708942             0.00836598577             0.00490987695           
       0.711583             0.00427977334             0.00304094262           
       0.714223             0.00861483121             0.00498105282           
       0.716864              0.0110366008             0.00368880936           
       0.719504             0.00430434108             0.00248593483           
       0.722144             0.00733999508             0.00300629159           
       0.724785             0.00924278839             0.00269101505           
       0.727425              0.0100655674             0.00379903942           
       0.730065             0.00926736145             0.00257854038           
       0.732706             0.00644878098             0.00180627322           
       0.735346             0.00598831405             0.00226892963           
       0.737987             0.00599663455             0.00160442568           
       0.740627             0.00762395065             0.00269924518           
       0.743267             0.00812155019             0.00186600981           
       0.745908              0.0106350922              0.0023167214           
       0.748548             0.00554965503             0.00154259034           
       0.751189             0.00861863684             0.00259032008           
       0.753829             0.00859516153             0.00237785994           
       0.756469             0.00935466428             0.00200035326           
       0.759110             0.00712910588             0.00184026626           
       0.761750             0.00594228561             0.00148559543           
       0.764390             0.00890502112             0.00190347307           
       0.767031             0.00913737922             0.00166970307           
       0.769671             0.00714006186             0.00184117067           
       0.772312             0.00877276973              0.0015536843           
       0.774952             0.00702621095             0.00187765034           
       0.777592             0.00824649589             0.00148165142           
       0.780233              0.0076806641             0.00172518024           
       0.782873             0.00708237575             0.00158440864           
       0.785513             0.00729257959              0.0017187871           
       0.788154             0.00736544434                0.00144499           
       0.790794             0.00851681287             0.00185764599           
       0.793435             0.00615771633             0.00141900674           
       0.796075             0.00271258641             0.00090726169           
       0.798715             0.00592742142             0.00158484367           
       0.801356             0.00903916364             0.00168443232           
       0.803996             0.00979944208             0.00178806306           
       0.806637             0.00618539396              0.0011305195           
       0.809277             0.00530738556             0.00113348566           
       0.811917              0.0078186039             0.00128610955           
       0.814558             0.00660249414             0.00122833614           
       0.817198             0.00600034968             0.00111249107           
       0.819838             0.00738549574             0.00124913764           
       0.822479             0.00642792669             0.00136843768           
       0.825119             0.00502474949             0.00102977062           
       0.827760             0.00956169432             0.00143894288           
       0.830400              0.0074324367             0.00119403468           
       0.833040              0.0102908165             0.00147200711           
       0.835681             0.00544333506             0.00121706175           
       0.838321             0.00710220305              0.0011668374           
       0.840961             0.00724548206             0.00128408399           
       0.843602             0.00738635746              0.0011889501           
       0.846242             0.00838291021             0.00126642972           
       0.848883             0.00823792002             0.00128475184           
       0.851523             0.00862150827             0.00129799661           
       0.854163             0.00751882482             0.00128906878           
       0.856804             0.00730367686              0.0011423464           
       0.859444             0.00905576224             0.00124632122           
       0.862085             0.00724079091             0.00116153559           
       0.864725             0.00820331778              0.0012652558           
       0.867365             0.00586665845            0.000992190059           
       0.870006             0.00853308212             0.00114027687           
       0.872646             0.00619869971             0.00101913896           
       0.875286             0.00787208998             0.00110492077           
       0.877927             0.00720280476             0.00101986636           
       0.880567             0.00776873757             0.00109732669           
       0.883208             0.00772177346             0.00108369833           
       0.885848             0.00764138174             0.00111933236           
       0.888488             0.00616253048            0.000942815933           
       0.891129             0.00863364206             0.00114584685           
       0.893769             0.00654885853            0.000955071975           
       0.896410             0.00690326509            0.000914238986           
       0.899050             0.00892578311             0.00114324934           
       0.901690             0.00606828867              0.0010268208           
       0.904331             0.00751508733              0.0010130579           
       0.906971             0.00912687097             0.00118768862           
       0.909611             0.00845074377             0.00104035899           
       0.912252             0.00721587763            0.000992970854           
       0.914892             0.00813965637             0.00115247207           
       0.917533             0.00550003447            0.000896188854           
       0.920173             0.00725901239            0.000955237932           
       0.922813             0.00760406476             0.00102596257           
       0.925454             0.00615344985            0.000831071474           
       0.928094             0.00751815929            0.000980701842           
       0.930734             0.00753787692             0.00105721763           
       0.933375             0.00799017875             0.00107777378           
       0.936015             0.00862949251             0.00101725568           
       0.938656             0.00774195052             0.00103363395           
       0.941296             0.00725478106            0.000906804985           
       0.943936             0.00829364755            0.000950803518           
       0.946577             0.00857896651            0.000960626923           
       0.949217             0.00642632189            0.000764562642           
       0.951858             0.00825785007             0.00090725469           
       0.954498             0.00909288573             0.00110194766           
       0.957138             0.00901455596             0.00103943838           
       0.959779             0.00722014069            0.000917034733           
       0.962419             0.00837591205            0.000981139082           
       0.965059             0.00699135373            0.000942763738           
       0.967700             0.00491386171            0.000809501778           
       0.970340             0.00751279348            0.000885730844           
       0.972981             0.00899560038            0.000883039714           
       0.975621             0.00885039095            0.000931789208           
       0.978261             0.00865688887            0.000875631466           
       0.980902             0.00694731477            0.000938519981           
       0.983542             0.00865649471            0.000927740671           
       0.986182             0.00709583762            0.000824665274           
       0.988823             0.00986066105            0.000943949788           
       0.991463             0.00792044746            0.000902594509           
       0.994104             0.00722909263            0.000841189518           
       0.996744             0.00846731595            0.000928584879           
       0.999384              0.0100341269            0.000904041803           
       1.002025             0.00710009536            0.000848782494           
       1.004665             0.00831636171             0.00083949557           
       1.007306             0.00822627517            0.000830662629           
       1.009946             0.00732904423            0.000799626772           
       1.012586             0.00752706753            0.000789240309           
       1.015227             0.00752865116            0.000847980367           
       1.017867              0.0077532672            0.000827035638           
       1.020507             0.00803774519            0.000815660677           
       1.023148             0.00722305991            0.000834325403           
       1.025788             0.00914487948            0.000860787278           
       1.028429             0.00972320973            0.000929894943           
       1.031069             0.00820006186            0.000803609362           
       1.033709             0.00781304755             0.00083383655           
       1.036350             0.00912475009            0.000809326258           
       1.038990             0.00766128879            0.000755218078           
       1.041630             0.00679485759            0.000741822765           
       1.044271             0.00723050785            0.000719674982           
       1.046911              0.0071300711            0.000751728157           
       1.049552             0.00745733353            0.000807707617           
       1.052192             0.00759111557            0.000744125638           
       1.054832             0.00846904131            0.000793128294           
       1.057473             0.00759433532            0.000740380743           
       1.060113             0.00680233368            0.000683384174           
       1.062754               0.007140396            0.000714850692           
       1.065394             0.00718927694            0.000758364484           
       1.068034              0.0091464135            0.000778281561           
       1.070675             0.00793168805            0.000756013588           
       1.073315             0.00854068636            0.000795745191           
       1.075955             0.00765177316            0.000711061186           
       1.078596             0.00798637793            0.000772063574           
       1.081236             0.00849230655            0.000762358677           
       1.083877             0.00732094954             0.00070148235           
       1.086517             0.00740150647            0.000756321473           
       1.089157             0.00882857692            0.000857090578           
       1.091798             0.00893656152            0.000756006908           
       1.094438             0.00844441643            0.000732523194           
       1.097078             0.00824010938            0.000694015501           
       1.099719             0.00806582184            0.000742702543           
       1.102359              0.0100228349            0.000775352541           
       1.105000             0.00931028238            0.000835608507           
       1.107640             0.00884698884            0.000778844797           
       1.110280             0.00918866088            0.000724228927           
       1.112921             0.00836520792            0.000742300637           
       1.115561             0.00936227511            0.000746355998           
       1.118202             0.00836281386            0.000706058316           
       1.120842              0.0106673665            0.000838104855           
       1.123482              0.0085504445            0.000747073113           
       1.126123              0.0102007215             0.00078266999           
       1.128763             0.00913550707             0.00074575653           
       1.131403             0.00847618901            0.000692183712           
       1.134044             0.00826341427            0.000703262119           
       1.136684             0.00884356757            0.000775673675           
       1.139325             0.00761159707            0.000662913093           
       1.141965             0.00776793503            0.000674113642           
       1.144605             0.00828331191            0.000663749758           
       1.147246             0.00838637204            0.000683503231           
       1.149886             0.00963623006            0.000730066844           
       1.152527             0.00892948245            0.000713004417           
       1.155167              0.0090099744             0.00068122554           
       1.157807             0.00930737407            0.000742351664           
       1.160448             0.00892778767            0.000709989068           
       1.163088             0.00904241768            0.000681558906           
       1.165728             0.00902558414            0.000699117757           
       1.168369             0.00786980954            0.000658853156           
       1.171009             0.00948794169             0.00070206274           
       1.173650              0.0085210019            0.000682784301           
       1.176290             0.00871901895            0.000674941723           
       1.178930             0.00933523058            0.000684481021           
       1.181571             0.00924282085            0.000694590902           
       1.184211              0.0103378542            0.000737189473           
       1.186851             0.00889771691            0.000668655512           
       1.189492             0.00942980316            0.000683727195           
       1.192132              0.0100165998            0.000696773086           
       1.194773             0.00973111154            0.000689772448           
       1.197413             0.00789026024            0.000595113728           
       1.200053              0.0100060298             0.00068719834           
       1.202694             0.00921396916             0.00062708869           
       1.205334               0.009304208            0.000679106591           
       1.207975             0.00893148417             0.00063510981           
       1.210615              0.0081202417             0.00066805757           
       1.213255             0.00942059055            0.000644351586           
       1.215896              0.0103684536            0.000688239144           
       1.218536             0.00985754309            0.000645260881           
       1.221176              0.0094802165            0.000687973376           
       1.223817             0.00939118524             0.00064277263           
       1.226457             0.00988548705            0.000672757672           
       1.229098              0.0105254039            0.000694157227           
       1.231738             0.00957266147            0.000665253262           
       1.234378              0.0107961978            0.000663853631           
       1.237019              0.0101353921            0.000662828542           
       1.239659             0.00885301826            0.000614082734           
       1.242299             0.00981727811            0.000638445211           
       1.244940              0.0101558432            0.000631544107           
       1.247580             0.00945647568            0.000628047953           
       1.250221              0.0108252819            0.000667820431           
       1.252861             0.00999717993            0.000610967332           
       1.255501             0.00933177625            0.000640936163           
       1.258142             0.00993708086            0.000621500872           
       1.260782             0.00900048573            0.000604285295           
       1.263423              0.0104257363            0.000624934772           
       1.266063              0.0101794276            0.000632928602           
       1.268703              0.0100502198            0.000623680246           
       1.271344              0.0106582684            0.000664036839           
       1.273984             0.00991594089            0.000618591916           
       1.276624             0.00954239535            0.000595428309           
       1.279265              0.0112497025             0.00065724033           
       1.281905              0.0101669721            0.000627585213           
       1.284546              0.0105201009            0.000617062912           
       1.287186              0.0107588758            0.000612236081           
       1.289826             0.00995184099            0.000620574689           
       1.292467              0.0113235244            0.000647381885           
       1.295107              0.0107065725            0.000623245695           
       1.297747              0.0117060608            0.000623610885           
       1.300388              0.0107186587            0.000650512005           
       1.303028             0.00992634213            0.000597624576           
       1.305669              0.0108191085            0.000638777077           
       1.308309              0.0116150756            0.000655339926           
       1.310949              0.0103485516            0.000617957661           
       1.313590              0.0113089322            0.000625802757           
       1.316230              0.0111742507            0.000663829904           
       1.318871              0.0108374513            0.000640267096           
       1.321511              0.0111491242            0.000637371551           
       1.324151              0.0109362474             0.00061254291           
       1.326792              0.0106202498            0.000607360349           
       1.329432              0.0112820649            0.000621581059           
       1.332072              0.0104446622            0.000589155105           
       1.334713               0.010532087            0.000610606079           
       1.337353              0.0115503862            0.000613239044           
       1.339994              0.0127252363            0.000675469417           
       1.342634              0.0119200699            0.000626905859           
       1.345274              0.0111678672            0.000627984555           
       1.347915              0.0118385633            0.000628711856           
       1.350555              0.0110184877            0.000617168101           
       1.353195              0.0115237462            0.000634259721           
       1.355836              0.0118690471            0.000633654987           
       1.358476              0.0116665178            0.000610102331           
       1.361117              0.0106167991             0.00058280675           
       1.363757              0.0103406967            0.000592741356           
       1.366397              0.0104400151            0.000577558076           
       1.369038              0.0114040421            0.000609645658           
       1.371678              0.0110654296            0.000595232281           
       1.374319              0.0107246753            0.000580949754           
       1.376959              0.0119674667            0.000607516389           
       1.379599              0.0107239356             0.00061631973           
       1.382240              0.0120472659            0.000613948177           
       1.384880              0.0120414012            0.000650152312           
       1.387520              0.0106399735             0.00058042675           
       1.390161              0.0109791995            0.000559984823           
       1.392801              0.0112437739            0.000590437981           
       1.395442              0.0105505567            0.000579758669           
       1.398082              0.0115150812            0.000567192708           
       1.400722              0.0114327855            0.000591994506           
       1.403363              0.0118065625            0.000633250615           
       1.406003              0.0110328274            0.000572889443           
       1.408644              0.0126488279            0.000642589373           
       1.411284              0.0109990266            0.000567407159           
       1.413924              0.0109824554            0.000564877628           
       1.416565              0.0116125613            0.000578574569           
       1.419205              0.0102900777             0.00056814005           
       1.421845              0.0107021827            0.000579064812           
       1.424486              0.0117076192            0.000582173648           
       1.427126              0.0105467285            0.000573999927           
       1.429767              0.0118259556            0.000571879588           
       1.432407              0.0111389244            0.000580840683           
       1.435047              0.0106146943            0.000532514574           
       1.437688              0.0105166261              0.0005379741           
       1.440328               0.010456613            0.000547494101           
       1.442968             0.00994097986            0.000545785167           
       1.445609              0.0113641742            0.000565035627           
       1.448249              0.0112213687            0.000575690353           
       1.450890              0.0112184847            0.000571859342           
       1.453530              0.0114113897            0.000603401762           
       1.456170              0.0119476351            0.000599217265           
       1.458811              0.0113592021            0.000558696119           
       1.461451               0.010324755            0.000534046886           
       1.464092              0.0103992037            0.000539472923           
       1.466732              0.0111764827            0.000554464895           
       1.469372              0.0108586999            0.000533735082           
       1.472013              0.0118363918            0.000601000311           
       1.474653              0.0123485749            0.000604396159           
       1.477293              0.0115938996            0.000597979636           
       1.479934              0.0104468197            0.000541635525           
       1.482574              0.0106861982            0.000529916619           
       1.485215              0.0107093741            0.000540371455           
       1.487855              0.0119484294             0.00057830556           
       1.490495              0.0107943279            0.000547642745           
       1.493136              0.0106300026            0.000536009175           
       1.495776              0.0111363893             0.00054612963           
       1.498416              0.0109045932            0.000558096967           
       1.501057              0.0106541914            0.000539494381           
       1.503697              0.0108581935            0.000532467487           
       1.506338              0.0104168361            0.000531063758           
       1.508978              0.0115610508             0.00055396877           
       1.511618             0.00941349749            0.000532365313           
       1.514259              0.0109813381            0.000555127936           
       1.516899               0.011282892            0.000547881694           
       1.519540              0.0111163067            0.000552591614           
       1.522180               0.010007322            0.000528909494           
       1.524820              0.0111248198            0.000554530531           
       1.527461              0.0111881378            0.000558856696           
       1.530101              0.0105065475            0.000536149979           
       1.532741              0.0107364671              0.0005388393           
       1.535382              0.0115402077            0.000567637793           
       1.538022              0.0104853042            0.000509718407           
       1.540663              0.0103687837            0.000545178923           
       1.543303              0.0107169402            0.000514635915           
       1.545943              0.0113136079            0.000559661996           
       1.548584              0.0123608283            0.000595491755           
       1.551224               0.011824861             0.00053851933           
       1.553864               0.010538154            0.000537194863           
       1.556505             0.00970478642            0.000498002288           
       1.559145              0.0104294583            0.000522585032           
       1.561786              0.0103574203            0.000521178195           
       1.564426              0.0102853646            0.000503207828           
       1.567066              0.0109482083            0.000543989827           
       1.569707                0.01049756            0.000523107831           
       1.572347              0.0105666441            0.000542198025           
       1.574988               0.010447119            0.000513154468           
       1.577628             0.00988532238            0.000520507378           
       1.580268              0.0115375403            0.000544833908           
       1.582909              0.0100211051             0.00053821388           
       1.585549             0.00919976813            0.000500714836           
       1.588189             0.00920213539            0.000489849556           
       1.590830             0.00997949056            0.000509480031           
       1.593470             0.00921010334            0.000508826573           
       1.596111             0.00891353202            0.000488709156           
       1.598751             0.00926009073            0.000482660698           
       1.601391             0.00971834731            0.000505368405           
       1.604032             0.00872743882            0.000488923246           
       1.606672             0.00967604239            0.000500185852           
       1.609312             0.00980571026            0.000525622438           
       1.611953             0.00901064281            0.000493061112           
       1.614593             0.00911384505             0.00048641575           
       1.617234             0.00968383822              0.0005196348           
       1.619874             0.00962114569            0.000515903993           
       1.622514             0.00997789223            0.000518214669           
       1.625155             0.00952804121            0.000509389696           
       1.627795             0.00941819938            0.000494036183           
       1.630436             0.00960835833            0.000496393093           
       1.633076             0.00944277932            0.000498551436           
       1.635716             0.00883817838            0.000474822249           
       1.638357             0.00953845053            0.000494574615           
       1.640997              0.0102102806            0.000527195973           
       1.643637             0.00983955094            0.000503621232           
       1.646278               0.010153422            0.000527664894           
       1.648918             0.00862969019            0.000487789783           
       1.651559             0.00847447112            0.000487134797           
       1.654199             0.00955261181            0.000503017102           
       1.656839             0.00874425297            0.000481431623           
       1.659480             0.00830067719            0.000486675896           
       1.662120             0.00920985619            0.000482819103           
       1.664761             0.00884262618            0.000491423926           
       1.667401             0.00931338839            0.000482036732           
       1.670041             0.00902699797            0.000481803534           
       1.672682             0.00920859564             0.00048462555           
       1.675322             0.00961763167            0.000492087049           
       1.677962             0.00923602862            0.000476906294           
       1.680603             0.00879507412             0.00046681473           
       1.683243             0.00888113926            0.000489411272           
       1.685884             0.00973348118             0.00051614182           
       1.688524             0.00834333826            0.000468627432           
       1.691164             0.00929397036            0.000494717172           
       1.693805             0.00820984868            0.000470076783           
       1.696445             0.00942852108            0.000506681391           
       1.699085             0.00937019405            0.000488186392           
       1.701726             0.00913353154            0.000464305438           
       1.704366             0.00904128191            0.000486656633           
       1.707007             0.00849123768            0.000461108065           
       1.709647             0.00947225991            0.000492516812           
       1.712287             0.00859102089            0.000473130007           
       1.714928             0.00840926442            0.000471872436           
       1.717568              0.0089207639            0.000457824848           
       1.720209             0.00897259129            0.000480930758           
       1.722849             0.00908870218            0.000481544066           
       1.725489             0.00853199803             0.00046695496           
       1.728130              0.0086279482            0.000499024818           
       1.730770             0.00862957027             0.00047398401           
       1.733410             0.00864817343            0.000467036034           
       1.736051              0.0090446919            0.000480947309           
       1.738691             0.00925620312            0.000476675555           
       1.741332             0.00866080214            0.000474572353           
       1.743972              0.0085474135            0.000486857895           
       1.746612             0.00925395706            0.000486446572           
       1.749253             0.00922207083            0.000495197748           
       1.751893             0.00812955168             0.00046152813           
       1.754533             0.00849652302            0.000471389308           
       1.757174             0.00776577588            0.000446442392           
       1.759814             0.00933159358            0.000481967155           
       1.762455             0.00810607421            0.000457453608           
       1.765095             0.00882695479            0.000456654135           
       1.767735             0.00886005377            0.000471623667           
       1.770376             0.00880989982            0.000471526722           
       1.773016             0.00826483607            0.000453648144           
       1.775657             0.00898282907            0.000466137762           
       1.778297             0.00781318089            0.000430988628           
       1.780937              0.0086884089            0.000479711451           
       1.783578             0.00840878954            0.000460128813           
       1.786218             0.00881936839            0.000491778361           
       1.788858             0.00885530569            0.000468021428           
       1.791499             0.00890026322            0.000463938333           
       1.794139              0.0091624012            0.000466901858           
       1.796780             0.00844229665            0.000446018115           
       1.799420             0.00922466589            0.000463645252           
       1.802060             0.00827952147            0.000442799321           
       1.804701              0.0083042213            0.000425563742           
       1.807341             0.00876466143            0.000459404835           
       1.809981             0.00874917188            0.000460529029           
       1.812622              0.0092301779             0.00046450311           
       1.815262             0.00933461766            0.000477046434           
       1.817903             0.00801930392            0.000435609847           
       1.820543             0.00834019361            0.000451162009           
       1.823183             0.00920848335            0.000473805056           
       1.825824             0.00829042964            0.000429497835           
       1.828464             0.00810176655             0.00044264585           
       1.831105             0.00839418039            0.000438106055           
       1.833745             0.00875685323            0.000457026832           
       1.836385             0.00808985473            0.000451812824           
       1.839026             0.00789843099            0.000445024891           
       1.841666             0.00806299183            0.000448042575           
       1.844306             0.00730622869            0.000414861564           
       1.846947             0.00833388724            0.000446962103           
       1.849587             0.00856351572            0.000500307908           
       1.852228             0.00762523122            0.000426899152           
       1.854868             0.00833748043            0.000471546905           
       1.857508             0.00776192798            0.000450517586           
       1.860149             0.00862155315            0.000483436443           
       1.862789             0.00845481082            0.000462093605           
       1.865429             0.00752651307            0.000455105169           
       1.868070             0.00776556159            0.000456114615           
       1.870710             0.00809289308            0.000454893525           
       1.873351             0.00826110032            0.000465278257           
       1.875991             0.00879039937            0.000487785262           
       1.878631             0.00813303403            0.000460206008           
       1.881272             0.00887868654            0.000477617976           
       1.883912             0.00937475953            0.000510758664           
       1.886553             0.00736983862            0.000447797741           
       1.889193             0.00767488611            0.000456190441           
       1.891833             0.00821249593             0.00049008409           
       1.894474             0.00780824283            0.000473708133           
       1.897114             0.00720305707            0.000440274961           
       1.899754             0.00825843207            0.000473399388           
       1.902395             0.00842163115            0.000468707518           
       1.905035              0.0076817853            0.000474132344           
       1.907676             0.00768889852            0.000447077981           
       1.910316             0.00733216806            0.000448175643           
       1.912956             0.00801490435            0.000458268513           
       1.915597             0.00895054163            0.000486985421           
       1.918237             0.00841610443            0.000487691147           
       1.920878             0.00755826734            0.000460276648           
       1.923518             0.00822874113            0.000480461671           
       1.926158             0.00757428867            0.000454978081           
       1.928799             0.00851112363            0.000476712563           
       1.931439             0.00797289668            0.000473495101           
       1.934079             0.00805606115            0.000496174697           
       1.936720             0.00734910058            0.000439085779           
       1.939360             0.00847587797            0.000503074474           
       1.942001             0.00773859626            0.000440583041           
       1.944641             0.00726653219            0.000435343181           
       1.947281             0.00739372778            0.000435089098           
       1.949922             0.00771723734            0.000459135141           
       1.952562             0.00772792111             0.00047385468           
       1.955202             0.00824718123            0.000488918973           
       1.957843             0.00771329603              0.0004605672           
       1.960483             0.00675971576            0.000450775914           
       1.963124             0.00714240788            0.000453854255           
       1.965764             0.00843090339            0.000465002982           
       1.968404             0.00734573915            0.000429945633           
       1.971045             0.00829372543            0.000465779367           
       1.973685             0.00765913312            0.000469504554           
       1.976326             0.00819722444            0.000479041558           
       1.978966             0.00729371275            0.000455836169           
       1.981606             0.00783801161            0.000482393825           
       1.984247             0.00710558102            0.000456282575           
       1.986887             0.00807781902            0.000480670416           
       1.989527             0.00814295239            0.000477407052           
       1.992168             0.00800728677            0.000491206556           
       1.994808             0.00752367119            0.000474100843           
       1.997449             0.00785289519            0.000474415608           
       2.000089              0.0077396851            0.000469116227           
       2.002729             0.00773341586            0.000469207329           
       2.005370             0.00717789353            0.000447176955           
       2.008010             0.00784989757            0.000488050779           
       2.010650             0.00763248227            0.000484835621           
       2.013291             0.00722920985            0.000452717163           
       2.015931             0.00725022851            0.000450169956           
       2.018572             0.00800970396            0.000506090378           
       2.021212             0.00832702734            0.000506746837           
       2.023852             0.00747845277            0.000454517838           
       2.026493             0.00715716851            0.000464513232           
       2.029133             0.00839365575            0.000492917401           
       2.031774             0.00730123847            0.000482469747           
       2.034414             0.00694416023            0.000432947351           
       2.037054             0.00711768418            0.000449433377           
       2.039695              0.0069571691            0.000440980879           
       2.042335             0.00688197721            0.000455792732           
       2.044975             0.00715642069            0.000459155416           
       2.047616             0.00747160775            0.000467992244           
       2.050256             0.00727470258            0.000466154512           
       2.052897             0.00779977895            0.000491583142           
       2.055537             0.00717543792            0.000455685086           
       2.058177             0.00730105073            0.000450127542           
       2.060818             0.00739456109            0.000474553573           
       2.063458             0.00790271921              0.0005112419           
       2.066098             0.00744761777            0.000468179934           
       2.068739             0.00676161702            0.000453031218           
       2.071379             0.00807916364            0.000508121306           
       2.074020             0.00779836241             0.00048836374           
       2.076660             0.00710658055            0.000469968497           
       2.079300             0.00807133357            0.000513125819           
       2.081941             0.00762803402            0.000456740914           
       2.084581             0.00800763271            0.000493944248           
       2.087222             0.00784927771            0.000471628348           
       2.089862             0.00756359158            0.000504240605           
       2.092502             0.00688120753            0.000466218999           
       2.095143             0.00757151015            0.000505012188           
       2.097783             0.00726413285              0.0004789094           
       2.100423              0.0076191056            0.000472614102           
       2.103064             0.00747493113            0.000485738617           
       2.105704             0.00642614817            0.000448144307           
       2.108345             0.00778187713            0.000473791461           
       2.110985             0.00820580566            0.000519644501           
       2.113625             0.00743901129            0.000499087555           
       2.116266             0.00771940565            0.000515619552           
       2.118906             0.00789491777            0.000485960596           
       2.121546             0.00834356149            0.000490039159           
       2.124187             0.00776338827            0.000496183413           
       2.126827             0.00697693221            0.000475629782           
       2.129468             0.00773812256            0.000502183583           
       2.132108             0.00650552638            0.000447986372           
       2.134748             0.00813429459            0.000498993954           
       2.137389             0.00779552426            0.000509619132           
       2.140029              0.0074810804            0.000446945843           
       2.142670             0.00759664734             0.00048133594           
       2.145310                0.00779799            0.000474660794           
       2.147950             0.00679395947            0.000456019984           
       2.150591              0.0076928954            0.000480347988           
       2.153231             0.00728868114             0.00048127832           
       2.155871               0.007558701            0.000473480863           
       2.158512             0.00826995669            0.000516765373           
       2.161152             0.00618254815             0.00043281069           
       2.163793             0.00795464172             0.00048872547           
       2.166433             0.00746381503            0.000486139587           
       2.169073             0.00761119804            0.000479986407           
       2.171714             0.00719259952            0.000463112618           
       2.174354             0.00654682583            0.000461675648           
       2.176995             0.00706714034            0.000477652626           
       2.179635             0.00718126299            0.000508801841           
       2.182275             0.00728563645            0.000483868105           
       2.184916             0.00717053943            0.000463647467           
       2.187556             0.00723244428            0.000460977466           
       2.190196              0.0069014088            0.000470561852           
       2.192837             0.00802224065             0.00050457568           
       2.195477             0.00726169384            0.000457682213           
       2.198118             0.00711806844            0.000464744358           
       2.200758             0.00708370304            0.000475647137           
       2.203398             0.00663524985            0.000463289907           
       2.206039             0.00747282715            0.000465316485           
       2.208679             0.00716797037            0.000466332295           
       2.211319             0.00739171467            0.000476285035           
       2.213960             0.00728802758            0.000479269207           
       2.216600             0.00754844626            0.000504573502           
       2.219241             0.00700423233            0.000464527092           
       2.221881              0.0067517369            0.000457015101           
       2.224521             0.00745618212            0.000486150218           
       2.227162             0.00716059796            0.000466877618           
       2.229802             0.00751194656            0.000493163976           
       2.232443             0.00700377675            0.000468680154           
       2.235083             0.00764179363            0.000504003169           
       2.237723              0.0065470573            0.000447681733           
       2.240364             0.00777845474            0.000499991326           
       2.243004             0.00752999818            0.000488014327           
       2.245644             0.00772834551            0.000499348593           
       2.248285             0.00771623293            0.000488961539           
       2.250925             0.00691389717            0.000465654364           
       2.253566             0.00680900235            0.000494029367           
       2.256206               0.006856207            0.000485826549           
       2.258846             0.00716792038            0.000472544476           
       2.261487             0.00704437505            0.000491686369           
       2.264127             0.00720221438            0.000480153434           
       2.266767             0.00701180334            0.000486386173           
       2.269408             0.00715241476             0.00049325048           
       2.272048              0.0083452291            0.000529614879           
       2.274689             0.00738572453             0.00050480382           
       2.277329              0.0071880617            0.000468901939           
       2.279969             0.00624643998            0.000465280356           
       2.282610             0.00664986985            0.000466718415           
       2.285250              0.0078374071            0.000484962511           
       2.287891             0.00738600295            0.000504757352           
       2.290531             0.00592248666            0.000458067157           
       2.293171             0.00669200041            0.000474301352           
       2.295812             0.00639367215            0.000461745137           
       2.298452             0.00795507835            0.000538605412           
       2.301092             0.00686145769            0.000464761162           
       2.303733             0.00736013445            0.000500776224           
       2.306373              0.0063650476            0.000473029087           
       2.309014             0.00776837541            0.000512384861           
       2.311654             0.00763220571            0.000529990915           
       2.314294             0.00694389386            0.000465744504           
       2.316935             0.00709471978            0.000472720442           
       2.319575             0.00737673371            0.000505049762           
       2.322215             0.00754716582            0.000532392756           
       2.324856             0.00677159561            0.000463648059           
       2.327496              0.0080054151            0.000536039021           
       2.330137             0.00739439823            0.000492985201           
       2.332777             0.00684963347            0.000489237461           
       2.335417              0.0065787907            0.000465155055           
       2.338058              0.0074001277            0.000508074791           
       2.340698             0.00793213762            0.000521887405           
       2.343339             0.00703356047            0.000502253215           
       2.345979              0.0069051375            0.000470813523           
       2.348619             0.00768604797            0.000514880048           
       2.351260             0.00773218526            0.000513414273           
       2.353900             0.00723014111            0.000494894083           
       2.356540             0.00764384842            0.000508133676           
       2.359181             0.00674987252            0.000470801738           
       2.361821             0.00760174875             0.00048262762           
       2.364462             0.00724831291            0.000492894095           
       2.367102             0.00632646958            0.000473222403           
       2.369742              0.0066682744            0.000511377857           
       2.372383             0.00652593082            0.000458082491           
       2.375023             0.00625584412            0.000471473912           
       2.377663             0.00730915577            0.000487273629           
       2.380304             0.00762281604            0.000505916275           
       2.382944             0.00670966367            0.000452086835           
       2.385585              0.0069325592             0.00049010164           
       2.388225             0.00659268682            0.000475691121           
       2.390865             0.00693616714            0.000482913507           
       2.393506             0.00656366592             0.00046090462           
       2.396146             0.00685037743            0.000509118922           
       2.398787             0.00665805962            0.000462559644           
       2.401427             0.00673525484            0.000449057519           
       2.404067             0.00616196946             0.00043910205           
       2.406708             0.00773362825            0.000486024279           
       2.409348             0.00698584979            0.000489966872           
       2.411988             0.00626472373            0.000454606968           
       2.414629             0.00751353762             0.00051336542           
       2.417269             0.00757975123            0.000521642526           
       2.419910             0.00724001355            0.000511001053           
       2.422550             0.00811734569            0.000517669174           
       2.425190             0.00723504237            0.000515168689           
       2.427831             0.00765946998            0.000527084288           
       2.430471              0.0061601266            0.000450327615           
       2.433112             0.00708171425            0.000470170763           
       2.435752             0.00688409303            0.000490595535           
       2.438392              0.0070983707            0.000480838056           
       2.441033             0.00716641044            0.000512028149           
       2.443673             0.00755276038            0.000526053119           
       2.446313             0.00718522346            0.000513546333           
       2.448954             0.00674646237            0.000473803491           
       2.451594             0.00707029185            0.000521532927           
       2.454235             0.00792697252            0.000518128848           
       2.456875             0.00736595529            0.000522611675           
       2.459515             0.00744707161            0.000539084698           
       2.462156             0.00734330938            0.000505412774           
       2.464796             0.00755951528             0.00050618317           
       2.467436             0.00829210791            0.000548230338           
       2.470077             0.00865803638            0.000530964486           
       2.472717             0.00719621421             0.00048616649           
       2.475358             0.00726889919            0.000493710397           
       2.477998             0.00810262193            0.000512467979           
       2.480638             0.00781947544            0.000512379808           
       2.483279             0.00722789791            0.000514863065           
       2.485919             0.00688013091            0.000484104196           
       2.488560             0.00802644212            0.000521418998           
       2.491200              0.0076297135            0.000523486161           
       2.493840             0.00710674849            0.000534596342           
       2.496481             0.00784786412            0.000552590472           
       2.499121              0.0065393248            0.000490631056           
       2.501761              0.0065680849            0.000498223672           
       2.504402             0.00653048574            0.000489537424           
       2.507042             0.00694617798            0.000501137511           
       2.509683             0.00761455633            0.000516675032           
       2.512323             0.00729954817            0.000531294361           
       2.514963             0.00696316637            0.000512497447           
       2.517604             0.00678184923            0.000524825421           
       2.520244             0.00843034506            0.000548574475           
       2.522884             0.00789496188             0.00053846164           
       2.525525              0.0112783591            0.000650885017           
       2.528165              0.0075761236            0.000525148193           
       2.530806             0.00806534127              0.0005512827           
       2.533446             0.00764761757            0.000525358769           
       2.536086             0.00743953823            0.000513524648           
       2.538727             0.00740926933            0.000491645613           
       2.541367             0.00684335036             0.00047715111           
       2.544008             0.00835858766            0.000544610091           
       2.546648             0.00744870773            0.000522932762           
       2.549288              0.0074505268            0.000533653104           
       2.551929             0.00739354967            0.000523134733           
       2.554569             0.00734849477            0.000502458553           
       2.557209             0.00684741365            0.000489479593           
       2.559850             0.00742291413            0.000511270698           
       2.562490             0.00820182665            0.000555459018           
       2.565131             0.00655416514            0.000514836427           
       2.567771             0.00740007556            0.000527440318           
       2.570411             0.00694876346            0.000505573611           
       2.573052             0.00667732419            0.000501842047           
       2.575692             0.00670819552            0.000499954874           
       2.578332             0.00537193485            0.000449247362           
       2.580973              0.0067883323            0.000500206995           
       2.583613             0.00734522226            0.000507930885           
       2.586254             0.00693794564            0.000492962191           
       2.588894             0.00645383319            0.000493734611           
       2.591534             0.00704924522            0.000534164589           
       2.594175             0.00705370523            0.000524250378           
       2.596815             0.00745690336            0.000542203784           
       2.599456             0.00709905008             0.00050168028           
       2.602096             0.00672248546            0.000491908643           
       2.604736             0.00753804201            0.000533244848           
       2.607377             0.00786336375            0.000530277238           
       2.610017             0.00613241313            0.000460094691           
       2.612657             0.00715045235             0.00052844202           
       2.615298             0.00625263339            0.000482449485           
       2.617938             0.00728672953            0.000557143063           
       2.620579             0.00560151814             0.00046894286           
       2.623219             0.00775591682            0.000551015872           
       2.625859             0.00803699543            0.000545363377           
       2.628500             0.00719257997            0.000512537281           
       2.631140             0.00816662873            0.000554555765           
       2.633780             0.00684761476            0.000507359472           
       2.636421             0.00765781471            0.000549730033           
       2.639061             0.00685225135            0.000489531882           
       2.641702              0.0071676549            0.000512262368           
       2.644342              0.0071575542            0.000514082496           
       2.646982              0.0063394627            0.000476579215           
       2.649623             0.00676840924            0.000516055985           
       2.652263             0.00682311261            0.000512937725           
       2.654904             0.00668202053            0.000508117285           
       2.657544             0.00750224133            0.000507117573           
       2.660184             0.00621114555            0.000488319631           
       2.662825             0.00666582282            0.000517613597           
       2.665465             0.00631258513            0.000487172604           
       2.668105             0.00684864383            0.000534857304           
       2.670746             0.00770108757            0.000523942225           
       2.673386             0.00889027162            0.000580158507           
       2.676027             0.00745918173            0.000522887294           
       2.678667              0.0110549554            0.000621125783           
       2.681307              0.0114769323            0.000621829998           
       2.683948              0.0156438851            0.000745921814           
       2.686588               0.011437356            0.000627221975           
       2.689229             0.00972596353            0.000565183982           
       2.691869             0.00999404765            0.000605519822           
       2.694509             0.00871558564            0.000565775996           
       2.697150             0.00810871279            0.000536869104           
       2.699790             0.00733445162             0.00053528516           
       2.702430             0.00692598501            0.000497216386           
       2.705071             0.00699412962            0.000516300642           
       2.707711             0.00707682311             0.00050406213           
       2.710352             0.00705480551            0.000531775556           
       2.712992             0.00707457201            0.000542366321           
       2.715632             0.00666431836            0.000488399953           
       2.718273             0.00645537139            0.000498162778           
       2.720913             0.00648846328            0.000498016937           
       2.723553             0.00585551921            0.000476277499           
       2.726194             0.00672469029            0.000533539723           
       2.728834             0.00796828004            0.000581054166           
       2.731475             0.00718006435            0.000509048234           
       2.734115             0.00724556658            0.000527235363           
       2.736755             0.00722218204            0.000530716429           
       2.739396             0.00781596382            0.000548903543           
       2.742036             0.00747431804            0.000561766881           
       2.744677               0.007062687            0.000529846981           
       2.747317             0.00838382733            0.000573163748           
       2.749957             0.00756909304            0.000548424228           
       2.752598             0.00788059921            0.000565668693           
       2.755238             0.00734874622            0.000556108098           
       2.757878             0.00836045927             0.00058796818           
       2.760519             0.00825652365            0.000578106507           
       2.763159              0.0112581496             0.00066831454           
       2.765800              0.0082806623            0.000546217653           
       2.768440             0.00797286438            0.000539918308           
       2.771080             0.00828192208            0.000554876703           
       2.773721             0.00711043079            0.000527399811           
       2.776361              0.0066407154            0.000516713747           
       2.779001             0.00769837441            0.000576148841           
       2.781642             0.00636704671            0.000520105932           
       2.784282             0.00679488401            0.000546131523           
       2.786923             0.00670156072            0.000547143614           
       2.789563             0.00724543205            0.000547929588           
       2.792203             0.00705678909             0.00051657025           
       2.794844             0.00750179511            0.000583730657           
       2.797484             0.00718676924            0.000539208203           
       2.800125             0.00706554424            0.000562175445           
       2.802765             0.00768477387            0.000576206645           
       2.805405             0.00681874437            0.000544605919           
       2.808046             0.00755926622            0.000583496603           
       2.810686             0.00595867749             0.00047602965           
       2.813326             0.00640968162            0.000512834773           
       2.815967             0.00763561755            0.000575648364           
       2.818607              0.0059177013            0.000483598412           
       2.821248             0.00624168915            0.000486349129           
       2.823888              0.0068548136            0.000529057478           
       2.826528             0.00580536241            0.000471516798           
       2.829169             0.00696616185            0.000541015956           
       2.831809             0.00655627402            0.000531997237           
       2.834449             0.00672910218            0.000542369635           
       2.837090               0.006327823            0.000507983709           
       2.839730             0.00702969727            0.000532801361           
       2.842371             0.00733600196            0.000545070999           
       2.845011             0.00637792991            0.000512284552           
       2.847651             0.00615230478            0.000503759631           
       2.850292             0.00634216937            0.000516493434           
       2.852932             0.00758876009            0.000577290442           
       2.855573             0.00694089983            0.000535551454           
       2.858213             0.00651942964            0.000545051543           
       2.860853             0.00688467749            0.000521032473           
       2.863494             0.00649744448            0.000524065852           
       2.866134             0.00719870275            0.000573342844           
       2.868774             0.00752245955            0.000576010174           
       2.871415             0.00732467443            0.000577240787           
       2.874055             0.00648537235             0.00051919644           
       2.876696             0.00644181719            0.000531446362           
       2.879336             0.00771947319            0.000560711523           
       2.881976             0.00826599253            0.000598457562           
       2.884617             0.00748466452            0.000561107984           
       2.887257             0.00739219763            0.000560509445           
       2.889897               0.006276651            0.000505858058           
       2.892538             0.00708939056            0.000588956149           
       2.895178             0.00735675684            0.000542023151           
       2.897819             0.00618557127            0.000506997014           
       2.900459             0.00679234343            0.000520947138           
       2.903099             0.00783762826              0.0005538699           
       2.905740             0.00670802005            0.000525661146           
       2.908380             0.00674204063            0.000532980295           
       2.911021             0.00691339067            0.000548485513           
       2.913661             0.00760617726            0.000575138845           
       2.916301             0.00662795065            0.000537394326           
       2.918942             0.00721999441            0.000536497885           
       2.921582              0.0068882583            0.000548284009           
       2.924222             0.00749003892            0.000553898865           
       2.926863             0.00729462805            0.000569373717           
       2.929503             0.00760234914            0.000588145499           
       2.932144             0.00649568015            0.000521875314           
       2.934784               0.006857799            0.000527432151           
       2.937424             0.00633214726            0.000512018685           
       2.940065             0.00675891458            0.000504608019           
       2.942705             0.00762567689            0.000535315313           
       2.945346             0.00676970359            0.000535271668           
       2.947986             0.00597626841            0.000512810936           
       2.950626             0.00704423483             0.00055361392           
       2.953267             0.00775281127            0.000571406729           
       2.955907             0.00684552676            0.000556993021           
       2.958547             0.00658300383            0.000515648749           
       2.961188             0.00765841957            0.000580245853           
       2.963828             0.00745208114             0.00055988933           
       2.966469             0.00717592779            0.000538976597           
       2.969109              0.0064183083            0.000517283585           
       2.971749             0.00754039067            0.000557182631           
       2.974390             0.00772120334            0.000554059726           
       2.977030             0.00577287917            0.000489789158           
       2.979670             0.00845364092            0.000576514745           
       2.982311             0.00802000016             0.00058200127           
       2.984951             0.00698934645             0.00051674433           
       2.987592             0.00695971621            0.000525975838           
       2.990232             0.00726429206            0.000558850338           
       2.992872             0.00800318359            0.000552529037           
       2.995513             0.00810877666             0.00054410959           
       2.998153              0.0101525274            0.000619058765           
       3.000794              0.0123945833             0.00066253137           
       3.003434              0.0115725729            0.000641151526           
       3.006074              0.0489733061             0.00130045501           
       3.008715               0.124879751             0.00200461069           
       3.011355               0.184278649             0.00234824864           
       3.013995              0.0939470086             0.00168123356           
       3.016636              0.0606109943             0.00132236108           
       3.019276               0.130598544             0.00190804253           
       3.021917               0.503425708             0.00360211661           
       3.024557                1.67542056             0.00646073566           
       3.027197                1.12846675             0.00516946507           
       3.029838               0.517427181             0.00355011842           
       3.032478               0.257179782             0.00250540529           
       3.035118              0.0712170413             0.00133610112           
       3.037759              0.0991405168             0.00157438976           
       3.040399               0.132897644             0.00188029098           
       3.043040               0.534808802             0.00381818213           
       3.045680               0.390809525             0.00307088882           
       3.048320              0.0866295886             0.00147727659           
       3.050961               0.107728539             0.00167640832           
       3.053601              0.0844793444             0.00142978472           
       3.056242              0.0553201193             0.00123014695           
       3.058882              0.0454989891             0.00119672906           
       3.061522              0.0374098464             0.00106465698           
       3.064163              0.0442455575             0.00114326799           
       3.066803                 0.1011747             0.00182007266           
       3.069443               0.100597433             0.00189882196           
       3.072084              0.0570160964             0.00139196869           
       3.074724              0.0432295072             0.00135358411           
       3.077365              0.0876760494             0.00199548826           
       3.080005              0.0175276187            0.000897272024           
       3.082645              0.0103311564            0.000723673809           
       3.085286              0.0128515958            0.000813504393           
       3.087926              0.0088258486            0.000668958949           
       3.090566              0.0102577949            0.000706624633           
       3.093207              0.0117054473            0.000785490705           
       3.095847             0.00726094045             0.00059296444           
       3.098488             0.00673110006            0.000633052535           
       3.101128              0.0101267902            0.000781477855           
       3.103768             0.00975884851            0.000752716787           
       3.106409             0.00900278906            0.000769435568           
       3.109049             0.00950515666            0.000758711111           
       3.111690             0.00848096048            0.000704367186           
       3.114330             0.00821750604            0.000708090204           
       3.116970             0.00924293208              0.0007567368           
       3.119611              0.0125709186            0.000939382002           
       3.122251              0.0210037313             0.00127014288           
       3.124891              0.0352994596             0.00166193863           
       3.127532              0.0238042483              0.0013351384           
       3.130172              0.0140446189             0.00104326414           
       3.132813             0.00905318495            0.000824594629           
       3.135453             0.00736601294            0.000737672954           
       3.138093             0.00694463561            0.000776096012           
       3.140734             0.00700682433            0.000719207076           
       3.143374             0.00817242205            0.000821423389           
       3.146014             0.00754855315            0.000849876774           
       3.148655             0.00611772551             0.00071123276           
       3.151295             0.00516157041            0.000696185299           
       3.153936             0.00462832863            0.000636809572           
       3.156576             0.00604643385            0.000717958444           
       3.159216             0.00662432072            0.000755243801           
       3.161857             0.00689290682            0.000767267156           
       3.164497             0.00753596551            0.000842943544           
       3.167138             0.00813586016            0.000904968978           
       3.169778             0.00661446616             0.00080252311           
       3.172418             0.00523217365            0.000706498306           
       3.175059             0.00726939451            0.000738275825           
       3.177699             0.00620738312            0.000722428639           
       3.180339             0.00519983001            0.000708428456           
       3.182980             0.00678941689            0.000836942305           
       3.185620             0.00513900612            0.000741555368           
       3.188261             0.00598016502              0.0008142212           
       3.190901             0.00673942108            0.000794964836           
       3.193541             0.00555601045            0.000758439946           
       3.196182              0.0058478833            0.000810898549           
       3.198822             0.00638719895            0.000847750271           
       3.201463             0.00530320725            0.000759162116           
       3.204103             0.00600616721            0.000802996341           
       3.206743             0.00570356948            0.000782433543           
       3.209384             0.00525691074            0.000811577213           
       3.212024             0.00379891203            0.000643215049           
       3.214664             0.00605304423            0.000923269279           
       3.217305             0.00571560231            0.000852817573           
       3.219945             0.00552838603            0.000863273914           
       3.222586             0.00586753527            0.000847100037           
       3.225226             0.00829411224             0.00111726998           
       3.227866              0.0072939499            0.000957626127           
       3.230507             0.00417592878            0.000751114597           
       3.233147             0.00619542692            0.000922269959           
       3.235787             0.00715759189             0.00101447356           
       3.238428              0.0054915647            0.000958909667           
       3.241068             0.00496769523            0.000852789426           
       3.243709             0.00703540831             0.00104851852           
       3.246349             0.00572255041            0.000862039883           
       3.248989             0.00527088481            0.000976882454           
       3.251630             0.00469015528            0.000887376949           
       3.254270             0.00722796086            0.000984528292           
       3.256911             0.00590196065            0.000970705261           
       3.259551             0.00499034631            0.000960958393           
       3.262191             0.00635516458             0.00110769394           
       3.264832             0.00483600567             0.00100961037           
       3.267472             0.00498701511            0.000961796873           
       3.270112              0.0035854016            0.000901247936           
       3.272753             0.00662917347              0.0011217081           
       3.275393             0.00553238044             0.00104557372           
       3.278034               0.005696302             0.00106154787           
       3.280674             0.00417765001            0.000986493932           
       3.283314             0.00484282189            0.000949920487           
       3.285955             0.00674102612             0.00115634732           
       3.288595             0.00441451772              0.0010410739           
       3.291235             0.00623965407             0.00127235906           
       3.293876             0.00613218281             0.00127947952           
       3.296516             0.00565061987             0.00117911243           
       3.299157             0.00479900961             0.00107297952           
       3.301797             0.00746136585              0.0015261262           
       3.304437             0.00610453499             0.00119595945           
       3.307078             0.00966038935             0.00165728143           
       3.309718             0.00755610932             0.00151287611           
       3.312359             0.00698364398             0.00145478377           
       3.314999             0.00555930572              0.0012779666           
       3.317639              0.0053742845             0.00120170738           
       3.320280             0.00545822987             0.00128760271           
       3.322920             0.00505372306             0.00125982568           
       3.325560             0.00499386333             0.00125319315           
       3.328201             0.00431156697              0.0010487189           
       3.330841             0.00757097108             0.00169133723           
       3.333482             0.00504733283             0.00130533712           
       3.336122             0.00402912832             0.00116680117           
       3.338762             0.00859974682             0.00196912985           
       3.341403             0.00287387298             0.00108771266           
       3.344043             0.00754361407             0.00169191551           
       3.346683             0.00910316761             0.00189747593           
       3.349324             0.00399304997             0.00141294677           
       3.351964             0.00387964644             0.00147276875           
       3.354605             0.00364579256             0.00163278377           
       3.357245             0.00650321721             0.00196722749           
       3.359885             0.00498145079             0.00137801502           
       3.362526             0.00352383282             0.00144937881           
       3.365166             0.00585930536             0.00176278018           
       3.367807             0.00435515274             0.00194499187           
       3.370447             0.00358405848             0.00146361639           
       3.373087             0.00403803948             0.00166131603           
       3.375728             0.00700257864             0.00246908023           
       3.378368             0.00194558228             0.00193152754           
       3.381008             0.00425642216             0.00212998521           
       3.383649             0.00551404148             0.00194479448           
       3.386289             0.00672235969             0.00254144148           
       3.388930             0.00728944713             0.00418610243           
       3.391570             0.00238096262             0.00169239344           
       3.394210              0.0116144397             0.00473035945           
       3.396851             0.00717594551             0.00415918631           
       3.399491           -2.57720051e-05                         0           
       3.402131              0.0047679083             0.00479790158           
       3.404772             0.00942550135             0.00954243909           
       3.407412                       nan                       nan           
       3.410053           -2.58695639e-05                         0           
       3.412693                       nan                       nan           
       3.415333              0.0175901227              0.0130644264           
