################################################################################
# EDF_DataBlockID                     0.Image.Psd
# EDF_BinarySize                      2105344
# EDF_HeaderSize                      2560
# ByteOrder                           LowByteFirst
# DataType                            FloatValue
# Dim_1                               512
# Dim_2                               1028
# Image                               0
# HeaderID                            EH:000000:000000:000000
# Size                                2105344
# Center_1                            304.9000
# Center_2                            588.7000
# Comment                             Xenocs_Cell_Window - 20251028_20perc_iodine_1.23mg
# DDummy                              0.6
# Date                                2025-11-01T08:15:00
# Delta                               21.910000
# Dummy                               -1.5
# ExposureTime                        360
# Gamma                               15.360000
# Intensity1                          8.63613e-10
# PSize_1                             7.5e-05
# PSize_2                             7.5e-05
# Pressure                            0.0327082
# SampleDistance                      0.115750
# SampleEnvKind                       large
# SampleEnvPN                         ElectroChemical cell
# SampleEnvSN                         1141
# Thickness                           0
# Wavelength                          1.541891e-10
# Wavelength                          1.54189e-10
# aux                                 0
# aux_dial                            0.002375
# beamx                               588.434
# beamx_dial                          588.434
# beamz                               657.808
# beamz_dial                          657.808
# det0x                               0
# det0x_dial                          6.36945
# det0xvd                             0
# det0xvd_dial                        0
# det0y                               450.002
# det0y_dial                          481.635
# det0z                               0
# det0z_dial                          1.23302
# det0zvd                             0
# det0zvd_dial                        0
# mag                                 1.818
# mag_dial                            1.818
# om                                  0.2499
# om_dial                             -0.610199
# phi                                 -0.0120535
# phi_dial                            0
# ry                                  0.599993
# ry_dial                             0.599993
# s1bot                               0.8
# s1bot_dial                          -1.66094
# s1hl                                0.8
# s1hl_dial                           -0.608437
# s1hr                                0.8
# s1hr_dial                           0.970938
# s1top                               0.8
# s1top_dial                          -0.461562
# s2bot                               0.45
# s2bot_dial                          1.36109
# s2hl                                0.45
# s2hl_dial                           -0.83375
# s2hr                                0.45
# s2hr_dial                           -0.118594
# s2top                               0.45
# s2top_dial                          1.44734
# w2theta                             32
# w2theta_dial                        32
# waxsch                              19.2605
# waxsch_dial                         -32.7355
# waxsh                               137.085
# waxsh_dial                          -43.5338
# waxsth                              26.0607
# waxsth_dial                         -19.4086
# waxsz                               67.0407
# waxsz_dial                          -23.7954
# wind                                65.9854
# wind_dial                           66.0041
# wpsi                                124
# wpsi_dial                           124
# wstod                               115
# wstod_dial                          115
# x                                   0
# x_dial                              1.00969
# z                                   0
# z_dial                              13.3172
# CountCutoff                         6807993
# DetectorModel                       Dectris EIGER2 Si 500K, S/N E-01-0554
# ThresholdSetting                    4023.88989258
# Saturation                          0
# FlatField                           Corrected
# BackgroundReductionExtra            0.02
# BackgroundCorrectionConstant        0.0026712
# Detector                            0
# Monitor                             0
# Pil_Roi0                            0
# SumForIntensity1                    3.10901e+08
# TransmittedFlux                     863613
# det                                 0
# mon                                 0
# pilai0                              3.10901e+08
# pilai1                              787836
# pilct0                              5.37057e+08
# pilct1                              787836
# pilroi0                             0
# pilroi1                             0
# sec                                 1
# title                               20251028_20perc_iodine_1.23mg_1_00817.edf
# usaxs0                              0
# Operation                           Azimuthal average I(q)
# Error_model                         ErrorModel.poisson
# Geometrical_correction              True
# Transmission_correction             True
# Thickness_correction                False
# Binning mode                        Uniform
# Binning factor                      1.0
# Psi                                 0.0
# Omega                               0.2499
# MaskInvalidPixels                   True
# DetectorEdge                        3
# MaskFiles                           ['WAXS_corrected.edf']
################################################################################
    q(A⁻¹)                Intensity(a.u.)            Sigma_I(a.u.)            
       0.693100             0.00408522834              0.0042399687           
       0.695741             0.00831123958             0.00493509029           
       0.698381              0.0167893911             0.00859196565           
       0.701021           -2.34725843e-05                         0           
       0.703662             0.00561718523             0.00405532887           
       0.706302             0.00692866403             0.00348697323           
       0.708942           -2.34270447e-05                         0           
       0.711583             0.00659010066             0.00380081502           
       0.714223             0.00865055385             0.00502750587           
       0.716864             0.00368959277             0.00214827874           
       0.719504              0.0102849064             0.00387052112           
       0.722144               0.006171152             0.00277650979           
       0.724785              0.0116528654             0.00304343378           
       0.727425             0.00582800623             0.00291170614           
       0.730065             0.00648276335             0.00217224517           
       0.732706              0.0081458929             0.00204478122           
       0.735346             0.00520524029             0.00213069851           
       0.737987             0.00646690956             0.00167821298           
       0.740627             0.00675112537             0.00255842831           
       0.743267             0.00692376871             0.00173539604           
       0.745908             0.00770686346             0.00198643739           
       0.748548             0.00695824804             0.00173980444           
       0.751189             0.00317625197             0.00158388806           
       0.753829              0.0100629103             0.00259151614           
       0.756469             0.00777480331              0.0018368351           
       0.759110             0.00720137919             0.00186296133           
       0.761750             0.00487173015             0.00135487202           
       0.764390             0.00785420127             0.00180058298           
       0.767031             0.00799341923             0.00157299588           
       0.769671              0.0101401593             0.00221003076           
       0.772312              0.0052976999             0.00121610467           
       0.774952             0.00304444705             0.00124491933           
       0.777592             0.00536983336             0.00120427201           
       0.780233             0.00542457419             0.00146032925           
       0.782873             0.00646743859             0.00152502424           
       0.785513             0.00819040735             0.00183470868           
       0.788154               0.008008881             0.00151769378           
       0.790794             0.00739547603             0.00174357381           
       0.793435              0.0103015659             0.00184866879           
       0.796075              0.0083012135             0.00159861706           
       0.798715             0.00772341398             0.00182217906           
       0.801356             0.00632037374             0.00141871019           
       0.803996             0.00525202388             0.00131849465           
       0.806637             0.00711819357             0.00122155252           
       0.809277              0.0068900664             0.00130082922           
       0.811917             0.00729542958             0.00125132944           
       0.814558             0.00577482888             0.00115708602           
       0.817198             0.00751106752             0.00125369518           
       0.819838             0.00685044846             0.00121174947           
       0.822479             0.00887047209             0.00161918251           
       0.825119             0.00764990781             0.00127980634           
       0.827760             0.00874956763             0.00138644387           
       0.830400             0.00810504665             0.00125591995           
       0.833040             0.00531376227             0.00106541528           
       0.835681             0.00880901751             0.00155946878           
       0.838321             0.00701012884             0.00116764189           
       0.840961             0.00690861846             0.00126295612           
       0.843602             0.00873435531             0.00130225719           
       0.846242             0.00634541493             0.00110980473           
       0.848883             0.00873630455             0.00133262272           
       0.851523             0.00830899062              0.0012834795           
       0.854163              0.0046974528              0.0010262784           
       0.856804             0.00742148993             0.00115985971           
       0.859444             0.00714337648             0.00111494161           
       0.862085              0.0067766765             0.00113182887           
       0.864725             0.00914048038             0.00134524365           
       0.867365             0.00542703783                 0.0009612           
       0.870006             0.00694563369             0.00103620613           
       0.872646             0.00887497024             0.00122828579           
       0.875286             0.00642210175             0.00100521179           
       0.877927             0.00598198287            0.000936155288           
       0.880567             0.00758009335             0.00109176926           
       0.883208             0.00935968072              0.0012017476           
       0.885848             0.00729906973              0.0011018938           
       0.888488             0.00815292485             0.00109228749           
       0.891129             0.00782758662             0.00109894604           
       0.893769             0.00734637829             0.00101887947           
       0.896410              0.0075873355            0.000965405958           
       0.899050             0.00594145851            0.000939500897           
       0.901690             0.00687737149             0.00110104648           
       0.904331             0.00664829227            0.000959743485           
       0.906971             0.00736485802             0.00107462441           
       0.909611             0.00583427097            0.000870686725           
       0.912252              0.0090015446             0.00111707751           
       0.914892             0.00792422069              0.0011453508           
       0.917533                  0.007529             0.00105613236           
       0.920173             0.00728539071             0.00096390023           
       0.922813             0.00743779623             0.00102202995           
       0.925454             0.00945987706             0.00103789796           
       0.928094             0.00801709108             0.00102005246           
       0.930734             0.00629999488            0.000973515441           
       0.933375             0.00969779237             0.00119596556           
       0.936015             0.00678403547            0.000908478013           
       0.938656             0.00898382179             0.00112151479           
       0.941296             0.00942600401             0.00104111433           
       0.943936             0.00751088329            0.000911373441           
       0.946577              0.0081715766             0.00094432843           
       0.949217             0.00727949849             0.00081962545           
       0.951858             0.00869618553            0.000937762782           
       0.954498             0.00689354971            0.000966416695           
       0.957138             0.00631901143            0.000876564783           
       0.959779             0.00661029898             0.00088380484           
       0.962419             0.00791084625             0.00096041484           
       0.965059             0.00657910156            0.000921167053           
       0.967700             0.00796187205              0.0010378792           
       0.970340             0.00719499935            0.000873070455           
       0.972981             0.00728360592            0.000800333966           
       0.975621             0.00785936382             0.00088442908           
       0.978261             0.00942220656            0.000920130905           
       0.980902             0.00691801762            0.000943319334           
       0.983542             0.00594978353            0.000774709736           
       0.986182             0.00828169048            0.000897363167           
       0.988823             0.00845205181            0.000880257679           
       0.991463             0.00604083401             0.00079396096           
       0.994104              0.0073436659             0.00085396738           
       0.996744             0.00610393372            0.000794120666           
       0.999384             0.00817987169            0.000822157141           
       1.002025             0.00956850088            0.000992474009           
       1.004665             0.00765931461            0.000811483227           
       1.007306             0.00773640127            0.000811382093           
       1.009946             0.00858287863            0.000871591547           
       1.012586             0.00780564855            0.000809531435           
       1.015227             0.00715481664            0.000832643954           
       1.017867             0.00842323151            0.000868268582           
       1.020507             0.00706547139            0.000770275082           
       1.023148             0.00713247595            0.000835079621           
       1.025788             0.00853085231            0.000837405728           
       1.028429              0.0100145638            0.000950556526           
       1.031069             0.00840048063            0.000819259261           
       1.033709             0.00710670115            0.000801009358           
       1.036350             0.00903018831            0.000810950627           
       1.038990              0.0079267622             0.00077375282           
       1.041630              0.0082290508            0.000822276196           
       1.044271             0.00768870742            0.000747500592           
       1.046911             0.00796187742            0.000800118846           
       1.049552             0.00968387971            0.000927085859           
       1.052192             0.00748551604            0.000744281472           
       1.054832             0.00669486767             0.00071028098           
       1.057473             0.00748198785            0.000740204291           
       1.060113             0.00939320932            0.000808864583           
       1.062754             0.00711285686            0.000718636211           
       1.065394             0.00852020379            0.000831559327           
       1.068034             0.00939929491            0.000794679176           
       1.070675             0.00820385277            0.000774441445           
       1.073315             0.00986552165             0.00086143107           
       1.075955             0.00824845456            0.000743609778           
       1.078596             0.00870063293            0.000811682955           
       1.081236             0.00755576246             0.00072430008           
       1.083877             0.00962253354            0.000810047763           
       1.086517             0.00860715244            0.000821502682           
       1.089157              0.0091957029            0.000881062472           
       1.091798             0.00951689644            0.000785816385           
       1.094438             0.00774080792            0.000706419328           
       1.097078             0.00807455914            0.000691982261           
       1.099719             0.00917153029            0.000797708776           
       1.102359              0.0089455828            0.000737804187           
       1.105000             0.00828592731            0.000794007957           
       1.107640             0.00835266946            0.000762252224           
       1.110280             0.00797129061            0.000679433484           
       1.112921             0.00975291253            0.000807312165           
       1.115561              0.0076180318            0.000678124737           
       1.118202             0.00933428739            0.000751342249           
       1.120842             0.00952895231            0.000797857248           
       1.123482             0.00793635445            0.000724956849           
       1.126123             0.00856045372            0.000722178405           
       1.128763             0.00907209754            0.000748544219           
       1.131403             0.00888352238            0.000713750669           
       1.134044             0.00886833073            0.000733822919           
       1.136684               0.010289185            0.000842730401           
       1.139325              0.0094811055            0.000745214095           
       1.141965             0.00991052899            0.000766940391           
       1.144605             0.00998433302            0.000733997813           
       1.147246             0.00959800053            0.000736506804           
       1.149886              0.0102777486            0.000759435526           
       1.152527             0.00917824286            0.000728101151           
       1.155167             0.00951781547            0.000705229795           
       1.157807              0.0087747717            0.000726017157           
       1.160448             0.00906436697            0.000720578574           
       1.163088             0.00870835189            0.000673692898           
       1.165728             0.00917673399            0.000710051115           
       1.168369             0.00939066429            0.000724915768           
       1.171009             0.00958920842            0.000710909256           
       1.173650             0.00982971323             0.00073865474           
       1.176290             0.00905953667            0.000692976213           
       1.178930             0.00914753892            0.000682470507           
       1.181571              0.0105386476            0.000747054235           
       1.184211             0.00889320121            0.000688693291           
       1.186851              0.0101477507            0.000719251707           
       1.189492              0.0097677681            0.000700909715           
       1.192132              0.0105187105            0.000719192792           
       1.194773             0.00867595973            0.000656018747           
       1.197413             0.00970789412            0.000664889829           
       1.200053             0.00952301359            0.000675260394           
       1.202694              0.0102649086            0.000666677814           
       1.205334             0.00879379814            0.000664996493           
       1.207975             0.00886880483            0.000637459243           
       1.210615              0.0089165897             0.00070511779           
       1.213255              0.0106382976            0.000689688167           
       1.215896              0.0103230954            0.000691703888           
       1.218536             0.00919238442            0.000627621703           
       1.221176              0.0106902871            0.000735851294           
       1.223817              0.0090083036            0.000634090941           
       1.226457             0.00936551929            0.000659566248           
       1.229098             0.00904792432            0.000648254907           
       1.231738              0.0101858578             0.00069119778           
       1.234378              0.0101322029            0.000647771335           
       1.237019               0.010328974            0.000673972824           
       1.239659              0.0100234981            0.000658148252           
       1.242299             0.00971807465            0.000639810069           
       1.244940              0.0101942016            0.000637316514           
       1.247580              0.0104443769             0.00066481726           
       1.250221             0.00973636263            0.000637927513           
       1.252861              0.0105583101            0.000632425408           
       1.255501              0.0103260307            0.000679097596           
       1.258142              0.0109143556            0.000656061041           
       1.260782               0.010527536            0.000658271858           
       1.263423              0.0107919653            0.000640419372           
       1.266063              0.0111700608            0.000667811173           
       1.268703              0.0103890183            0.000638696202           
       1.271344              0.0100353217             0.00064900399           
       1.273984              0.0119730058            0.000684654932           
       1.276624              0.0100515319            0.000615530775           
       1.279265              0.0114656134            0.000668321145           
       1.281905             0.00949578849            0.000610907239           
       1.284546              0.0110518113            0.000637043502           
       1.287186              0.0105255054            0.000609943799           
       1.289826              0.0117023271             0.00067781524           
       1.292467              0.0103661006            0.000623893283           
       1.295107              0.0124354791            0.000676547331           
       1.297747              0.0109926493            0.000608684658           
       1.300388              0.0120425492            0.000694507881           
       1.303028              0.0111987045             0.00063936755           
       1.305669              0.0104847592            0.000633381951           
       1.308309              0.0104195028             0.00062518993           
       1.310949              0.0121359857            0.000674045685           
       1.313590              0.0109142602            0.000619236709           
       1.316230              0.0102240931            0.000639577053           
       1.318871               0.011070563            0.000651801457           
       1.321511              0.0106587681             0.00062770946           
       1.324151              0.0108791259            0.000615364199           
       1.326792              0.0102563074            0.000601184056           
       1.329432              0.0118957726             0.00064288408           
       1.332072              0.0114777365            0.000622075991           
       1.334713              0.0110459694            0.000629852258           
       1.337353              0.0107102567            0.000594790953           
       1.339994               0.011991617            0.000660456936           
       1.342634              0.0101945787            0.000583956421           
       1.345274              0.0114627616            0.000640827798           
       1.347915              0.0103971489            0.000593460953           
       1.350555              0.0111595695            0.000625603349           
       1.353195              0.0108057879            0.000618630571           
       1.355836              0.0103279299            0.000595366561           
       1.358476              0.0120392533            0.000624258846           
       1.361117              0.0114882435            0.000610643106           
       1.363757              0.0118680211            0.000639605743           
       1.366397              0.0118505809            0.000619794597           
       1.369038              0.0107096856            0.000595071715           
       1.371678               0.011126408            0.000601191313           
       1.374319              0.0118646095            0.000615468867           
       1.376959              0.0107403418            0.000579694001           
       1.379599              0.0112199459            0.000634975872           
       1.382240              0.0114283544            0.000602299058           
       1.384880              0.0111306931            0.000629608484           
       1.387520              0.0105034659            0.000580866498           
       1.390161              0.0107942058            0.000559266922           
       1.392801              0.0124374505            0.000625484839           
       1.395442              0.0123893281            0.000632799764           
       1.398082              0.0109432793            0.000556934021           
       1.400722              0.0116506965            0.000601936199           
       1.403363              0.0117934998            0.000637482262           
       1.406003              0.0123549788            0.000610634418           
       1.408644              0.0105117365            0.000590035984           
       1.411284              0.0111061197            0.000574290628           
       1.413924              0.0120113013            0.000595021351           
       1.416565              0.0107268961            0.000560099567           
       1.419205              0.0110684553            0.000593502366           
       1.421845              0.0107331486            0.000584100306           
       1.424486              0.0113855008            0.000578265373           
       1.427126              0.0114291474            0.000601856203           
       1.429767              0.0108780084            0.000552451348           
       1.432407              0.0110612104            0.000583001399           
       1.435047              0.0107227315            0.000539092557           
       1.437688              0.0111312197            0.000557477567           
       1.440328              0.0111951065            0.000570598874           
       1.442968              0.0118663365            0.000600617982           
       1.445609              0.0119829459            0.000584415275           
       1.448249              0.0111667385            0.000578445007           
       1.450890              0.0111510536            0.000574265784           
       1.453530              0.0108651879            0.000593046566           
       1.456170              0.0109583398            0.000578027623           
       1.458811              0.0122195909            0.000583664048           
       1.461451             0.00979208527            0.000523853648           
       1.464092              0.0104074113            0.000543592975           
       1.466732               0.011107213            0.000556745735           
       1.469372              0.0107960065            0.000536045027           
       1.472013              0.0112336713            0.000589737515           
       1.474653              0.0107460176            0.000567897448           
       1.477293              0.0107340175            0.000579542974           
       1.479934              0.0112609399            0.000566415696           
       1.482574              0.0107873572            0.000536273486           
       1.485215              0.0113265429            0.000559747177           
       1.487855              0.0108218216            0.000554351224           
       1.490495              0.0105271581            0.000544738382           
       1.493136              0.0114050046            0.000559224437           
       1.495776             0.00957299933            0.000510012029           
       1.498416              0.0115835239             0.00057937286           
       1.501057               0.011015872            0.000552546699           
       1.503697              0.0104247743            0.000525509419           
       1.506338              0.0109461355            0.000548330026           
       1.508978              0.0110547893             0.00054562559           
       1.511618             0.00982258235            0.000547746932           
       1.514259              0.0110687281             0.00056136739           
       1.516899              0.0111490316            0.000548564901           
       1.519540              0.0106456693            0.000544682453           
       1.522180              0.0102488853            0.000539130138           
       1.524820              0.0101311886              0.0005330182           
       1.527461              0.0103051301            0.000540233067           
       1.530101              0.0102076023            0.000532293322           
       1.532741              0.0111953258            0.000554216945           
       1.535382              0.0104040795            0.000542874184           
       1.538022              0.0108617566            0.000522543802           
       1.540663             0.00990202488            0.000536623917           
       1.543303               0.010176529            0.000505123293           
       1.545943              0.0120629342            0.000582082583           
       1.548584              0.0111714121            0.000570215308           
       1.551224              0.0110687985            0.000524791006           
       1.553864              0.0108516184            0.000549072517           
       1.556505              0.0106730662            0.000526036426           
       1.559145              0.0112394869            0.000546427066           
       1.561786              0.0102889346            0.000523212979           
       1.564426             0.00979117666            0.000494524548           
       1.567066              0.0106135309            0.000539488342           
       1.569707              0.0103033061            0.000521997242           
       1.572347              0.0110587734            0.000558696228           
       1.574988              0.0108214872            0.000526048987           
       1.577628              0.0109487851            0.000551756306           
       1.580268             0.00965830309            0.000502100666           
       1.582909              0.0104144233            0.000552646681           
       1.585549              0.0101717699            0.000530314072           
       1.588189             0.00899062349             0.00048769262           
       1.590830             0.00953436119            0.000501593211           
       1.593470             0.00888710184              0.0005034432           
       1.596111              0.0103294014            0.000529902547           
       1.598751             0.00964786809            0.000496229825           
       1.601391             0.00945867606            0.000502180592           
       1.604032             0.00949299966            0.000513608121           
       1.606672             0.00889531302            0.000483054363           
       1.609312             0.00922070483            0.000513392236           
       1.611953             0.00870027831            0.000488002791           
       1.614593             0.00834308972            0.000468762795           
       1.617234             0.00936573932             0.00051472868           
       1.619874             0.00946141306            0.000515307383           
       1.622514             0.00914087153            0.000499593719           
       1.625155             0.00917280122            0.000503422013           
       1.627795             0.00950184801            0.000499817809           
       1.630436             0.00943630379            0.000495490076           
       1.633076             0.00874847331            0.000483347032           
       1.635716              0.0083847368            0.000465829797           
       1.638357             0.00932029866            0.000492425676           
       1.640997             0.00902505058            0.000499241796           
       1.643637             0.00961288636            0.000501390574           
       1.646278             0.00936188769            0.000510348173           
       1.648918             0.00928839916            0.000509727896           
       1.651559              0.0078031132            0.000470825172           
       1.654199             0.00895941565            0.000490675527           
       1.656839             0.00873771861            0.000484735864           
       1.659480             0.00918547463            0.000515663918           
       1.662120              0.0089041326            0.000478174816           
       1.664761             0.00947704191            0.000512430456           
       1.667401             0.00885950957            0.000473547977           
       1.670041             0.00840623024             0.00046830826           
       1.672682             0.00858553362            0.000471331126           
       1.675322             0.00781640654            0.000446832037           
       1.677962             0.00964908605            0.000490982913           
       1.680603             0.00917937325            0.000480357065           
       1.683243             0.00834447401            0.000477828423           
       1.685884             0.00855929116            0.000487513584           
       1.688524             0.00925008946            0.000497008272           
       1.691164             0.00911177181            0.000493390326           
       1.693805             0.00975409237            0.000516092474           
       1.696445             0.00848299858            0.000484084004           
       1.699085             0.00789817371            0.000451447848           
       1.701726             0.00890479923            0.000461773854           
       1.704366             0.00846196985            0.000474216049           
       1.707007             0.00896965291            0.000477351078           
       1.709647             0.00868360866            0.000474982105           
       1.712287             0.00887595821            0.000484393826           
       1.714928             0.00841772988             0.00047552786           
       1.717568             0.00924769572            0.000469513379           
       1.720209             0.00889431185            0.000482294884           
       1.722849             0.00823999312            0.000461829204           
       1.725489             0.00865941685            0.000473834645           
       1.728130             0.00793852685             0.00048213783           
       1.730770             0.00926460257            0.000494669772           
       1.733410             0.00852580562            0.000467077317           
       1.736051             0.00845727331            0.000468434272           
       1.738691             0.00919099079            0.000478432284           
       1.741332             0.00939572042            0.000497876109           
       1.743972             0.00720214705            0.000450141155           
       1.746612             0.00806674817            0.000457460421           
       1.749253             0.00865677641             0.00048325394           
       1.751893             0.00762850796            0.000450316177           
       1.754533             0.00963141027            0.000505518343           
       1.757174             0.00793469172            0.000454538735           
       1.759814             0.00890938276             0.00047434706           
       1.762455             0.00735090629             0.00043877824           
       1.765095              0.0076199382             0.00042735672           
       1.767735             0.00907641421            0.000480803294           
       1.770376             0.00856783626            0.000468370219           
       1.773016             0.00861539952            0.000466522502           
       1.775657             0.00880370426            0.000464807696           
       1.778297             0.00915907471            0.000470013726           
       1.780937             0.00838659569            0.000474717981           
       1.783578              0.0089191251            0.000477316761           
       1.786218             0.00943302087            0.000512281816           
       1.788858             0.00863086793            0.000465397518           
       1.791499             0.00852450342            0.000457326372           
       1.794139             0.00890734811            0.000463690322           
       1.796780              0.0099199792            0.000486979236           
       1.799420               0.008701778            0.000453573176           
       1.802060             0.00972980689            0.000483492017           
       1.804701             0.00936199136            0.000455126526           
       1.807341             0.00867542085            0.000460369066           
       1.809981             0.00914609383            0.000474268446           
       1.812622             0.00939959635            0.000472140289           
       1.815262             0.00988912795            0.000494565997           
       1.817903             0.00890899314            0.000462462511           
       1.820543              0.0107697234            0.000516392112           
       1.823183              0.0093202399            0.000480122492           
       1.825824             0.00870683649            0.000443338578           
       1.828464             0.00906969764            0.000471732511           
       1.831105             0.00845231355            0.000442803225           
       1.833745             0.00934858328            0.000475634592           
       1.836385             0.00972092632            0.000498855641           
       1.839026             0.00905647321            0.000479983503           
       1.841666             0.00863591432            0.000467044439           
       1.844306             0.00877148442            0.000457852918           
       1.846947             0.00839859632            0.000451942428           
       1.849587             0.00824596441            0.000494498427           
       1.852228             0.00889752829            0.000464479276           
       1.854868             0.00906118653             0.00049514556           
       1.857508             0.00901299747            0.000488983762           
       1.860149             0.00957505735            0.000513156922           
       1.862789             0.00869293496             0.00047194794           
       1.865429             0.00827222797            0.000480572565           
       1.868070             0.00823008242            0.000472957934           
       1.870710             0.00896379983             0.00048221065           
       1.873351             0.00882069249            0.000484259356           
       1.875991             0.00822962687            0.000475387012           
       1.878631             0.00783423894            0.000454943291           
       1.881272             0.00820042911            0.000462335733           
       1.883912             0.00871934981            0.000496147256           
       1.886553             0.00880327432            0.000492955703           
       1.889193             0.00820263424            0.000475028595           
       1.891833             0.00838633246            0.000498829268           
       1.894474             0.00828834035            0.000491587514           
       1.897114             0.00840527826            0.000479042975           
       1.899754             0.00809261243             0.00047201536           
       1.902395             0.00835635989            0.000470267806           
       1.905035             0.00845267713            0.000500954762           
       1.907676             0.00870080308             0.00047903115           
       1.910316             0.00897529567            0.000499446871           
       1.912956             0.00846761574            0.000474443265           
       1.915597              0.0082121787            0.000469843655           
       1.918237             0.00785428198            0.000474542843           
       1.920878             0.00869779096            0.000497330586           
       1.923518             0.00890378293            0.000503398825           
       1.926158             0.00806170076            0.000472787248           
       1.928799             0.00784089331            0.000460870372           
       1.931439             0.00846456673            0.000491408492           
       1.934079              0.0082102975            0.000504528324           
       1.936720             0.00838492337            0.000472405227           
       1.939360             0.00744436879            0.000474883131           
       1.942001             0.00808784977            0.000453676296           
       1.944641             0.00811611441            0.000463420343           
       1.947281             0.00887828841            0.000480224117           
       1.949922             0.00781056014            0.000465246982           
       1.952562             0.00724424231            0.000462107681           
       1.955202             0.00842662896            0.000497787431           
       1.957843              0.0090800601             0.00050332701           
       1.960483             0.00850114118            0.000509176052           
       1.963124             0.00823399925            0.000490831434           
       1.965764             0.00780021812            0.000450510507           
       1.968404             0.00822697111            0.000458298721           
       1.971045             0.00752188756            0.000446788213           
       1.973685             0.00786457032            0.000479203928           
       1.976326             0.00740914455            0.000458729512           
       1.978966             0.00809668678            0.000483750017           
       1.981606             0.00729096805            0.000468623707           
       1.984247             0.00754858946            0.000473696153           
       1.986887             0.00725178608             0.00045872847           
       1.989527             0.00806610926            0.000478589098           
       1.992168             0.00811918556             0.00049820785           
       1.994808             0.00765704045             0.00048174716           
       1.997449             0.00755481012            0.000468693266           
       2.000089             0.00836720377            0.000491294444           
       2.002729              0.0062257542            0.000424041106           
       2.005370             0.00779421223            0.000469353316           
       2.008010             0.00828849108            0.000505130534           
       2.010650             0.00791914988            0.000497432056           
       2.013291             0.00747488076            0.000463678061           
       2.015931             0.00830174266            0.000485197062           
       2.018572              0.0088847019            0.000536876195           
       2.021212             0.00780792658            0.000494250117           
       2.023852             0.00789552216            0.000470401126           
       2.026493             0.00764584468             0.00048358528           
       2.029133             0.00792306402            0.000482367484           
       2.031774             0.00789486498            0.000505332281           
       2.034414             0.00739721067            0.000450082454           
       2.037054             0.00718905789             0.00045495121           
       2.039695             0.00743329528            0.000459120877           
       2.042335             0.00694456914             0.00046117558           
       2.044975             0.00768408042            0.000479226252           
       2.047616             0.00766896297            0.000477565355           
       2.050256             0.00746907761            0.000475760767           
       2.052897             0.00797912658            0.000500802375           
       2.055537             0.00774669564            0.000476904834           
       2.058177             0.00784839045             0.00047007383           
       2.060818             0.00809022098            0.000499967884           
       2.063458             0.00689431548            0.000480968474           
       2.066098             0.00754894265            0.000474766468           
       2.068739             0.00741274612            0.000477777042           
       2.071379             0.00777468733            0.000502063372           
       2.074020             0.00659707756            0.000452428931           
       2.076660             0.00763201601            0.000490558619           
       2.079300              0.0080109169            0.000514902739           
       2.081941              0.0072167667            0.000447474002           
       2.084581             0.00747579305            0.000480714657           
       2.087222             0.00721961854            0.000455590908           
       2.089862              0.0074661929            0.000504610465           
       2.092502             0.00749876126            0.000490213506           
       2.095143             0.00803747216            0.000524086792           
       2.097783             0.00772181396            0.000497340709           
       2.100423             0.00768442792            0.000478072012           
       2.103064             0.00812923269            0.000510219063           
       2.105704             0.00747884694            0.000486959349           
       2.108345             0.00832151644            0.000493490903           
       2.110985             0.00757843566            0.000503000452           
       2.113625             0.00792001375            0.000518698472           
       2.116266             0.00723259134            0.000502709715           
       2.118906              0.0067930436            0.000454038124           
       2.121546             0.00766364481            0.000473048428           
       2.124187             0.00723076801            0.000482327109           
       2.126827             0.00704455185            0.000481389201           
       2.129468             0.00841205602            0.000527386072           
       2.132108             0.00697416818            0.000467199811           
       2.134748             0.00766017726            0.000487739147           
       2.137389             0.00754210953            0.000504896484           
       2.140029             0.00677668649             0.00042846397           
       2.142670             0.00766873457             0.00048711559           
       2.145310             0.00762300304            0.000472702544           
       2.147950             0.00732478114            0.000476927752           
       2.150591             0.00749306069            0.000477500199           
       2.153231             0.00699803345            0.000474999004           
       2.155871             0.00746394737            0.000473910139           
       2.158512             0.00816597797            0.000517224107           
       2.161152             0.00676651857            0.000456068138           
       2.163793             0.00743103899            0.000475786703           
       2.166433             0.00771517297            0.000497835951           
       2.169073             0.00827543671             0.00050411632           
       2.171714             0.00765107131             0.00048110256           
       2.174354             0.00729791966            0.000490968899           
       2.176995             0.00681083271            0.000472305809           
       2.179635             0.00699233983            0.000505699345           
       2.182275             0.00709197345            0.000480850051           
       2.184916             0.00840954784            0.000505744501           
       2.187556             0.00811321117            0.000491774955           
       2.190196             0.00784618798            0.000505370705           
       2.192837             0.00699027426            0.000474415039           
       2.195477             0.00714377882            0.000457237599           
       2.198118             0.00723053376            0.000471792567           
       2.200758             0.00728860297            0.000485970301           
       2.203398             0.00712691773            0.000483624107           
       2.206039             0.00731170839             0.00046360517           
       2.208679             0.00707879209             0.00046677742           
       2.211319             0.00665777735             0.00045529391           
       2.213960             0.00790999514            0.000502916055           
       2.216600             0.00681436177            0.000482882112           
       2.219241             0.00781926207             0.00049436365           
       2.221881              0.0076015418            0.000488434698           
       2.224521             0.00839195401            0.000519489349           
       2.227162             0.00760547015            0.000484645641           
       2.229802              0.0066642561            0.000467868503           
       2.232443              0.0072471449            0.000480205089           
       2.235083             0.00724936625            0.000494445587           
       2.237723             0.00798239115            0.000497904068           
       2.240364             0.00685810023            0.000472879611           
       2.243004             0.00735755913            0.000485886559           
       2.245644             0.00776667739             0.00050420955           
       2.248285             0.00739446792            0.000482123575           
       2.250925             0.00675378546            0.000463562951           
       2.253566             0.00755709316            0.000524229288           
       2.256206             0.00689034848            0.000490560692           
       2.258846             0.00727125445            0.000479384121           
       2.261487             0.00725426377            0.000502569899           
       2.264127             0.00799082862            0.000509419768           
       2.266767             0.00725911042            0.000498472182           
       2.269408             0.00653704673             0.00047496853           
       2.272048             0.00729990895            0.000498921979           
       2.274689             0.00661737714            0.000481284519           
       2.277329             0.00683225315            0.000460459009           
       2.279969             0.00805822941             0.00053229344           
       2.282610             0.00721618118            0.000489705461           
       2.285250             0.00758726666            0.000480615206           
       2.287891             0.00738563115            0.000508398887           
       2.290531             0.00723766569            0.000510045872           
       2.293171             0.00724064281            0.000496932972           
       2.295812             0.00650347676            0.000469064768           
       2.298452             0.00654703364            0.000492156967           
       2.301092             0.00731741166             0.00048342961           
       2.303733             0.00722213302            0.000499650628           
       2.306373             0.00759687646            0.000520519998           
       2.309014              0.0070594408            0.000491981992           
       2.311654             0.00702312926            0.000512084454           
       2.314294             0.00809302197            0.000506447499           
       2.316935             0.00697020174            0.000471945992           
       2.319575             0.00793092232            0.000527468871           
       2.322215             0.00651409895               0.000498196           
       2.324856             0.00710328105            0.000478305425           
       2.327496             0.00684344606            0.000499200223           
       2.330137             0.00703740624             0.00048441953           
       2.332777             0.00644555459            0.000478023284           
       2.335417             0.00784006211            0.000511466661           
       2.338058             0.00736057124            0.000510383551           
       2.340698             0.00724402257             0.00050234775           
       2.343339             0.00705316342            0.000506593899           
       2.345979             0.00719902065            0.000484208424           
       2.348619             0.00650096829            0.000476953907           
       2.351260             0.00756833516            0.000511622764           
       2.353900             0.00781477024            0.000518238711           
       2.356540             0.00654774425            0.000473697037           
       2.359181             0.00786132748            0.000511765594           
       2.361821             0.00686937867            0.000462111753           
       2.364462             0.00681445371            0.000481375009           
       2.367102             0.00760925903            0.000522743496           
       2.369742             0.00683921197            0.000521640243           
       2.372383             0.00701869652            0.000478501783           
       2.375023             0.00761098659            0.000523803089           
       2.377663             0.00672219647            0.000470682194           
       2.380304             0.00739139769            0.000501784319           
       2.382944             0.00668373326            0.000454479092           
       2.385585             0.00702632196            0.000496976959           
       2.388225             0.00683463065            0.000487847649           
       2.390865             0.00719710697            0.000495474634           
       2.393506             0.00784505349            0.000507538102           
       2.396146             0.00668405607            0.000506541345           
       2.398787             0.00698474439             0.00047720175           
       2.401427             0.00697853532             0.00046040493           
       2.404067             0.00733557062            0.000482564661           
       2.406708             0.00598779548             0.00043075732           
       2.409348             0.00696971867            0.000492944005           
       2.411988             0.00742501762             0.00049850181           
       2.414629             0.00629374599            0.000473251341           
       2.417269             0.00701916962            0.000505616515           
       2.419910             0.00739873254            0.000520311756           
       2.422550             0.00703870239            0.000485539375           
       2.425190             0.00648080252            0.000491107067           
       2.427831             0.00762779967            0.000529801544           
       2.430471             0.00722141132            0.000491108749           
       2.433112             0.00677967781             0.00046336563           
       2.435752             0.00698926098            0.000497907564           
       2.438392             0.00739271301             0.00049425866           
       2.441033             0.00678856741            0.000501955174           
       2.443673             0.00758669026            0.000531050464           
       2.446313             0.00762791406            0.000532960788           
       2.448954             0.00657746426             0.00047121849           
       2.451594             0.00792244971            0.000556065149           
       2.454235             0.00801323051            0.000524711743           
       2.456875             0.00706889264            0.000515671501           
       2.459515             0.00732217446            0.000538414992           
       2.462156             0.00769247312             0.00052103412           
       2.464796             0.00759938251            0.000511190469           
       2.467436             0.00730942262            0.000518447754           
       2.470077             0.00755623207             0.00049962169           
       2.472717             0.00735605496            0.000495094762           
       2.475358             0.00795157718              0.0005201127           
       2.477998             0.00736461165            0.000492109491           
       2.480638             0.00744952652            0.000503732997           
       2.483279             0.00744159994            0.000526201112           
       2.485919             0.00753081888            0.000510145977           
       2.488560             0.00687509693             0.00048606863           
       2.491200             0.00703480067             0.00050630225           
       2.493840             0.00713075312            0.000539375331           
       2.496481             0.00709556745            0.000529241742           
       2.499121             0.00723045083            0.000519641871           
       2.501761             0.00781773485             0.00054749268           
       2.504402              0.0068103293            0.000503535483           
       2.507042             0.00694523238            0.000504731277           
       2.509683             0.00653206289            0.000482006862           
       2.512323             0.00694062248             0.00052181829           
       2.514963             0.00619081606            0.000486737873           
       2.517604             0.00742412606            0.000553090673           
       2.520244             0.00746400221            0.000519914188           
       2.522884             0.00681196524            0.000503789175           
       2.525525              0.0104744748            0.000631801004           
       2.528165             0.00740359769            0.000522892754           
       2.530806             0.00776133244            0.000544708311           
       2.533446               0.007761683            0.000533093914           
       2.536086             0.00719180912            0.000508557717           
       2.538727             0.00745767978            0.000496820162           
       2.541367             0.00643394007            0.000466007521           
       2.544008             0.00733665911            0.000513926808           
       2.546648             0.00703515492            0.000511888162           
       2.549288             0.00681883695            0.000514225454           
       2.551929             0.00638426548            0.000489638316           
       2.554569             0.00731899154            0.000505079265           
       2.557209             0.00649862858            0.000480302708           
       2.559850             0.00680376925            0.000493027725           
       2.562490             0.00705925397            0.000519049768           
       2.565131              0.0070632527            0.000538326575           
       2.567771             0.00782275465             0.00054622047           
       2.570411             0.00761700827            0.000533157737           
       2.573052             0.00746259018            0.000534371736           
       2.575692             0.00680186808            0.000507078179           
       2.578332             0.00701674026             0.00051715501           
       2.580973             0.00734158203            0.000523957318           
       2.583613             0.00648623973            0.000480763533           
       2.586254             0.00698282634            0.000498134538           
       2.588894             0.00746637197            0.000534899737           
       2.591534             0.00748007593            0.000554229525           
       2.594175             0.00564771603            0.000472497369           
       2.596815             0.00582798133            0.000482808861           
       2.599456             0.00635672161            0.000478163449           
       2.602096             0.00674622331            0.000496343962           
       2.604736             0.00638828975            0.000494450207           
       2.607377               0.007142664            0.000509051571           
       2.610017             0.00686465566            0.000490313406           
       2.612657             0.00689202893            0.000522561008           
       2.615298             0.00718258543            0.000520827172           
       2.617938             0.00704236918            0.000551686892           
       2.620579             0.00760857064            0.000550492571           
       2.623219             0.00631348447             0.00050074309           
       2.625859             0.00803471292            0.000549233679           
       2.628500             0.00690020128             0.00050564633           
       2.631140             0.00637555565            0.000493532444           
       2.633780             0.00662765208            0.000502757819           
       2.636421             0.00728262835            0.000539975406           
       2.639061             0.00786855862            0.000528378089           
       2.641702             0.00711456314             0.00051405655           
       2.644342             0.00790653202            0.000544222359           
       2.646982             0.00620596643            0.000474948425           
       2.649623             0.00742307051            0.000544349936           
       2.652263             0.00726463061            0.000533105311           
       2.654904             0.00725984381             0.00053346579           
       2.657544             0.00690782591            0.000490136118           
       2.660184             0.00646382176            0.000501759826           
       2.662825             0.00717831946            0.000541032125           
       2.665465             0.00770731859            0.000542205301           
       2.668105             0.00744602578            0.000561734086           
       2.670746             0.00751750713            0.000521407366           
       2.673386             0.00801326511            0.000554787636           
       2.676027             0.00882811183             0.00057296656           
       2.678667             0.00982477037            0.000589786916           
       2.681307              0.0104110383            0.000596538738           
       2.683948              0.0140906625            0.000713049326           
       2.686588              0.0105879259            0.000607850477           
       2.689229             0.00938050762            0.000559074348           
       2.691869              0.0105965454            0.000628018848           
       2.694509             0.00943212372            0.000592835011           
       2.697150              0.0076124008            0.000523945536           
       2.699790             0.00808418603            0.000566046875           
       2.702430             0.00862127684            0.000558757445           
       2.705071             0.00636467162            0.000496085686           
       2.707711             0.00725559003            0.000514084059           
       2.710352             0.00702650909            0.000534550233           
       2.712992             0.00552423934            0.000482738281           
       2.715632             0.00748187526            0.000521237732           
       2.718273             0.00631090468            0.000496122972           
       2.720913             0.00685316186            0.000515527161           
       2.723553             0.00696190892            0.000523087566           
       2.726194             0.00806558041            0.000588547199           
       2.728834             0.00851443324             0.00060498564           
       2.731475             0.00750293457            0.000524135065           
       2.734115             0.00800867913            0.000558318054           
       2.736755             0.00732052062             0.00053818572           
       2.739396             0.00749831176            0.000541526083           
       2.742036             0.00724509785            0.000557089973           
       2.744677             0.00688494192            0.000526924623           
       2.747317             0.00667264057            0.000515038016           
       2.749957             0.00664222617            0.000517469086           
       2.752598             0.00848508144            0.000591212216           
       2.755238             0.00758740472            0.000569157009           
       2.757878             0.00784711727            0.000573755281           
       2.760519             0.00866444414            0.000596502771           
       2.763159              0.0093591492            0.000613759825           
       2.765800             0.00591439287            0.000464965948           
       2.768440             0.00819536617            0.000551363378           
       2.771080             0.00805721845            0.000551259846           
       2.773721              0.0078111179            0.000556777246           
       2.776361             0.00784104778            0.000565538924           
       2.779001             0.00715680868            0.000559535635           
       2.781642              0.0074542421            0.000566835974           
       2.784282             0.00706566755             0.00056093907           
       2.786923             0.00758488429            0.000586301095           
       2.789563             0.00721501523            0.000550736809           
       2.792203             0.00670332555            0.000507111952           
       2.794844             0.00643426542            0.000544518022           
       2.797484             0.00639526821            0.000512332481           
       2.800125             0.00766396237            0.000589737322           
       2.802765             0.00849820654            0.000610322283           
       2.805405             0.00749779781            0.000575214578           
       2.808046             0.00638426872            0.000540115897           
       2.810686             0.00733172923            0.000531857321           
       2.813326             0.00706760383            0.000542410645           
       2.815967             0.00711591251            0.000559736155           
       2.818607              0.0062505095            0.000500609313           
       2.821248             0.00814428683            0.000559572643           
       2.823888             0.00625085063             0.00050887072           
       2.826528             0.00717916441            0.000528143962           
       2.829169             0.00693841057            0.000543846277           
       2.831809             0.00634194339            0.000527017308           
       2.834449             0.00686238335            0.000551679902           
       2.837090             0.00649659873            0.000518440014           
       2.839730             0.00643344681            0.000513395125           
       2.842371             0.00726888095            0.000546499795           
       2.845011             0.00642390048            0.000517849618           
       2.847651              0.0077968223             0.00057121043           
       2.850292              0.0074152014            0.000562522932           
       2.852932             0.00596658785            0.000515590426           
       2.855573             0.00619080678            0.000509447937           
       2.858213             0.00827833115            0.000618638635           
       2.860853             0.00762481739            0.000552294328           
       2.863494             0.00706585092            0.000550464957           
       2.866134             0.00715548118            0.000575757451           
       2.868774             0.00706939982            0.000562437624           
       2.871415             0.00746678347            0.000587032972           
       2.874055             0.00666838296            0.000530282608           
       2.876696             0.00675913609            0.000548319518           
       2.879336             0.00712828627            0.000542714075           
       2.881976             0.00774451819              0.0005834665           
       2.884617             0.00702031724            0.000547358059           
       2.887257             0.00694157682            0.000547089131           
       2.889897             0.00765022163            0.000562515585           
       2.892538             0.00688920387            0.000584784559           
       2.895178             0.00661750272            0.000517791085           
       2.897819             0.00792294244             0.00057795179           
       2.900459             0.00635705215            0.000507626861           
       2.903099             0.00697900201            0.000526435253           
       2.905740              0.0074885803            0.000559424285           
       2.908380             0.00760255381            0.000570069873           
       2.911021             0.00703001593            0.000557096764           
       2.913661             0.00754893199            0.000577118645           
       2.916301             0.00636593335            0.000530477974           
       2.918942              0.0070773288            0.000535016454           
       2.921582              0.0059269012            0.000512268416           
       2.924222             0.00726934841            0.000549628253           
       2.926863             0.00735615981            0.000575909558           
       2.929503              0.0070207938             0.00056929432           
       2.932144             0.00752608462            0.000565811612           
       2.934784             0.00720280468            0.000544449887           
       2.937424             0.00609247647            0.000505871376           
       2.940065             0.00749477281            0.000535214381           
       2.942705             0.00663578073            0.000502978416           
       2.945346             0.00794511516            0.000584080083           
       2.947986             0.00697511375            0.000558021262           
       2.950626             0.00742380283            0.000572448171           
       2.953267             0.00837793093            0.000598297242           
       2.955907              0.0067926139            0.000558853084           
       2.958547              0.0075743726            0.000557119187           
       2.961188             0.00745101902            0.000576478576           
       2.963828             0.00777410984             0.00057599884           
       2.966469             0.00842584455            0.000588261558           
       2.969109             0.00745509646            0.000561536399           
       2.971749             0.00752264658            0.000560555792           
       2.974390             0.00750363338            0.000550152082           
       2.977030             0.00759334616            0.000565799295           
       2.979670             0.00865229118            0.000587471704           
       2.982311             0.00796367966            0.000584152855           
       2.984951             0.00694550711            0.000518850554           
       2.987592              0.0074693853            0.000548839461           
       2.990232             0.00785304956            0.000585262782           
       2.992872             0.00714695332            0.000525916817           
       2.995513             0.00881209186            0.000571322185           
       2.998153              0.0110638373              0.0006509244           
       3.000794              0.0130436479            0.000684577913           
       3.003434              0.0120693912            0.000659509823           
       3.006074              0.0494895271              0.0013167555           
       3.008715               0.125294083             0.00202247043           
       3.011355               0.179787057             0.00233624643           
       3.013995              0.0890707496              0.0016488722           
       3.016636              0.0584772206             0.00130827965           
       3.019276               0.125279011             0.00188230896           
       3.021917               0.483177108             0.00355448035           
       3.024557                1.71315373             0.00658038175           
       3.027197                1.14135877              0.0052365491           
       3.029838                0.50860803             0.00354521596           
       3.032478               0.262840808             0.00255116673           
       3.035118              0.0712004117             0.00134561706           
       3.037759               0.101469959             0.00160430995           
       3.040399                0.13997276             0.00194366339           
       3.043040               0.547625878             0.00389163605           
       3.045680               0.398749109             0.00312438293           
       3.048320              0.0821870862             0.00144931688           
       3.050961               0.106495087             0.00167885071           
       3.053601              0.0851647502             0.00144596637           
       3.056242              0.0573875831             0.00126199396           
       3.058882              0.0486343263              0.0012462331           
       3.061522              0.0379021074             0.00107939721           
       3.064163              0.0460814552             0.00117519293           
       3.066803               0.106632014             0.00188204255           
       3.069443               0.107684601             0.00197879346           
       3.072084              0.0508535314             0.00132411027           
       3.074724              0.0403999054             0.00131800831           
       3.077365              0.0884284711              0.0020185412           
       3.080005              0.0163808212            0.000873702085           
       3.082645              0.0116470148            0.000773942272           
       3.085286              0.0138815529            0.000851595325           
       3.087926             0.00898994651            0.000680037175           
       3.090566              0.0105684265            0.000722436704           
       3.093207              0.0108866421            0.000763004123           
       3.095847             0.00890403484            0.000661391344           
       3.098488             0.00882066481            0.000729928393           
       3.101128             0.00948275876            0.000761694798           
       3.103768              0.0112560003            0.000814248996           
       3.106409             0.00825090116            0.000741937432           
       3.109049             0.00878712811            0.000734772938           
       3.111690             0.00783032407            0.000681709479           
       3.114330             0.00691105889            0.000654069257           
       3.116970              0.0077232669            0.000696744203           
       3.119611              0.0123890116            0.000939312121           
       3.122251              0.0217720573             0.00130252766           
       3.124891              0.0348150091             0.00166244421           
       3.127532               0.023690967             0.00134160082           
       3.130172              0.0120434235            0.000973076862           
       3.132813             0.00841852074            0.000800922635           
       3.135453             0.00873221203            0.000808989021           
       3.138093              0.0061631507            0.000736418996           
       3.140734              0.0078743818            0.000767952644           
       3.143374             0.00829292505            0.000833447812           
       3.146014             0.00550824882            0.000731246409           
       3.148655             0.00644768702            0.000735447374           
       3.151295             0.00599619456            0.000755796102           
       3.153936             0.00737785435            0.000809832863           
       3.156576             0.00595134644            0.000717447522           
       3.159216             0.00636206702            0.000745501433           
       3.161857             0.00733822804            0.000797395674           
       3.164497             0.00831129211            0.000891653625           
       3.167138             0.00895305443            0.000956203735           
       3.169778             0.00639974867            0.000795104985           
       3.172418              0.0064792441            0.000791890421           
       3.175059             0.00523217581            0.000630875354           
       3.177699             0.00500792869            0.000653585812           
       3.180339             0.00675096132            0.000813049717           
       3.182980             0.00522278944            0.000739372698           
       3.185620             0.00609075121            0.000813153086           
       3.188261             0.00707953207              0.0008923207           
       3.190901             0.00616936699            0.000766107641           
       3.193541             0.00565216538               0.000770513           
       3.196182             0.00823235606            0.000969085548           
       3.198822             0.00637647325            0.000853170549           
       3.201463             0.00439514158            0.000696120673           
       3.204103             0.00545353706            0.000770702664           
       3.206743             0.00610492438            0.000815355688           
       3.209384             0.00712758904             0.00095185049           
       3.212024             0.00574372921            0.000796629576           
       3.214664             0.00613433356            0.000936177122           
       3.217305             0.00619619574            0.000894376898           
       3.219945              0.0062823993            0.000926926022           
       3.222586             0.00520607378            0.000803701677           
       3.225226             0.00488976407            0.000864072132           
       3.227866             0.00586035818            0.000864588685           
       3.230507             0.00657133963            0.000949050859           
       3.233147             0.00556975541            0.000880792027           
       3.235787              0.0066913731            0.000987979106           
       3.238428             0.00578365768            0.000991205729           
       3.241068              0.0041396684            0.000784115395           
       3.243709             0.00682883712             0.00104048949           
       3.246349             0.00580122582            0.000874229184           
       3.248989             0.00442266907            0.000901313005           
       3.251630             0.00700018663             0.00109194864           
       3.254270             0.00626395349            0.000923160973           
       3.256911             0.00630046586             0.00101020248           
       3.259551              0.0075125119             0.00118758498           
       3.262191             0.00565917314             0.00105284815           
       3.264832             0.00576921672             0.00111071259           
       3.267472             0.00411535481            0.000880034158           
       3.270112             0.00596306049             0.00117069255           
       3.272753             0.00713530726             0.00117216668           
       3.275393             0.00758967485             0.00123351119           
       3.278034              0.0056171595             0.00106177948           
       3.280674             0.00706721595             0.00129236576           
       3.283314             0.00699408557             0.00114983718           
       3.285955             0.00666079055             0.00115776669           
       3.288595             0.00550040079             0.00117049608           
       3.291235             0.00658453287             0.00131651188           
       3.293876             0.00406625475             0.00104943598           
       3.296516             0.00474689634             0.00108854131           
       3.299157             0.00658228304             0.00126571745           
       3.301797             0.00697083676             0.00148578717           
       3.304437             0.00378613482            0.000948682889           
       3.307078             0.00572893385             0.00128549005           
       3.309718             0.00647821827             0.00141096066           
       3.312359             0.00399514419             0.00110829787           
       3.314999             0.00296867704            0.000940640278           
       3.317639             0.00464897264             0.00112577025           
       3.320280             0.00368556137             0.00106571398           
       3.322920             0.00635467696             0.00142293265           
       3.325560             0.00732574283             0.00152882716           
       3.328201             0.00542941643             0.00118536193           
       3.330841              0.0038158185             0.00120943112           
       3.333482             0.00617442632             0.00145419582           
       3.336122              0.0047633283             0.00127784869           
       3.338762              0.0049944858             0.00151150568           
       3.341403             0.00708560295             0.00172029004           
       3.344043             0.00692996877             0.00163338081           
       3.346683             0.00602891915             0.00155536601           
       3.349324             0.00660726736             0.00183070023           
       3.351964             0.00447762462             0.00159365825           
       3.354605             0.00445495495             0.00181797214           
       3.357245             0.00476888936             0.00169680505           
       3.359885             0.00661662908             0.00159965855           
       3.362526             0.00475313273             0.00169549729           
       3.365166             0.00808062197             0.00208511665           
       3.367807             0.00265548142             0.00152975048           
       3.370447             0.00726941308             0.00209953086           
       3.373087             0.00403865926               0.001673472           
       3.375728             0.00524340328             0.00215201703           
       3.378368             0.00771523191             0.00387421274           
       3.381008             0.00646503139             0.00264406683           
       3.383649             0.00481921067             0.00183130012           
       3.386289             0.00290857745             0.00168380745           
       3.388930             0.00740124939             0.00424862053           
       3.391570             0.00603939101             0.00271490406           
       3.394210             0.00592105907             0.00340194727           
       3.396851             0.00241707715             0.00243134694           
       3.399491              0.0120082649             0.00542080641           
       3.402131           -2.61683855e-05                         0           
       3.404772           -2.61810156e-05                         0           
       3.407412                       nan                       nan           
       3.410053           -2.62454996e-05                         0           
       3.412693                       nan                       nan           
       3.415333              0.0178457418              0.0132542783           
