################################################################################
# EDF_DataBlockID                     0.Image.Psd
# EDF_BinarySize                      2105344
# EDF_HeaderSize                      2560
# ByteOrder                           LowByteFirst
# DataType                            FloatValue
# Dim_1                               512
# Dim_2                               1028
# Image                               0
# HeaderID                            EH:000000:000000:000000
# Size                                2105344
# Center_1                            304.9000
# Center_2                            588.7000
# Comment                             Xenocs_Cell_Window - 20251028_20perc_iodine_1.23mg
# DDummy                              0.6
# Date                                2025-10-29T13:22:45
# Delta                               21.910000
# Dummy                               -1.5
# ExposureTime                        360
# Gamma                               15.360000
# Intensity1                          8.53582e-10
# PSize_1                             7.5e-05
# PSize_2                             7.5e-05
# Pressure                            0.0328388
# SampleDistance                      0.115750
# SampleEnvKind                       large
# SampleEnvPN                         ElectroChemical cell
# SampleEnvSN                         1141
# Thickness                           0
# Wavelength                          1.541891e-10
# Wavelength                          1.54189e-10
# aux                                 0
# aux_dial                            0.002375
# beamx                               588.434
# beamx_dial                          588.434
# beamz                               657.808
# beamz_dial                          657.808
# det0x                               0
# det0x_dial                          6.36945
# det0xvd                             0
# det0xvd_dial                        0
# det0y                               450.002
# det0y_dial                          481.635
# det0z                               0
# det0z_dial                          1.23302
# det0zvd                             0
# det0zvd_dial                        0
# mag                                 1.818
# mag_dial                            1.818
# om                                  0.2499
# om_dial                             -0.610199
# phi                                 -0.0120535
# phi_dial                            0
# ry                                  0.599993
# ry_dial                             0.599993
# s1bot                               0.8
# s1bot_dial                          -1.66094
# s1hl                                0.8
# s1hl_dial                           -0.608437
# s1hr                                0.8
# s1hr_dial                           0.970938
# s1top                               0.8
# s1top_dial                          -0.461562
# s2bot                               0.45
# s2bot_dial                          1.36109
# s2hl                                0.45
# s2hl_dial                           -0.83375
# s2hr                                0.45
# s2hr_dial                           -0.118594
# s2top                               0.45
# s2top_dial                          1.44734
# w2theta                             32
# w2theta_dial                        32
# waxsch                              19.2605
# waxsch_dial                         -32.7355
# waxsh                               137.085
# waxsh_dial                          -43.5338
# waxsth                              26.0607
# waxsth_dial                         -19.4086
# waxsz                               67.0407
# waxsz_dial                          -23.7954
# wind                                65.9854
# wind_dial                           66.0041
# wpsi                                124
# wpsi_dial                           124
# wstod                               115
# wstod_dial                          115
# x                                   0
# x_dial                              1.00969
# z                                   0
# z_dial                              13.3172
# CountCutoff                         6807993
# DetectorModel                       Dectris EIGER2 Si 500K, S/N E-01-0554
# ThresholdSetting                    4023.88989258
# Saturation                          0
# FlatField                           Corrected
# BackgroundReductionExtra            0.02
# BackgroundCorrectionConstant        0.0026712
# Detector                            0
# Monitor                             0
# Pil_Roi0                            0
# SumForIntensity1                    3.07289e+08
# TransmittedFlux                     853582
# det                                 0
# mon                                 0
# pilai0                              3.07289e+08
# pilai1                              766446
# pilct0                              5.32407e+08
# pilct1                              766446
# pilroi0                             0
# pilroi1                             0
# sec                                 1
# title                               20251028_20perc_iodine_1.23mg_1_00209.edf
# usaxs0                              0
# Operation                           Azimuthal average I(q)
# Error_model                         ErrorModel.poisson
# Geometrical_correction              True
# Transmission_correction             True
# Thickness_correction                False
# Binning mode                        Uniform
# Binning factor                      1.0
# Psi                                 0.0
# Omega                               0.2499
# MaskInvalidPixels                   True
# DetectorEdge                        3
# MaskFiles                           ['WAXS_corrected.edf']
################################################################################
    q(A⁻¹)                Intensity(a.u.)            Sigma_I(a.u.)            
       0.693100             0.00827563155             0.00607004649           
       0.695741              0.0028187961             0.00289088619           
       0.698381             0.00427851201             0.00436273062           
       0.701021             0.00883085558             0.00886065029           
       0.703662             0.00282232216              0.0028913919           
       0.706302             0.00700777513             0.00352736906           
       0.708942             0.00861165258             0.00504690498           
       0.711583             0.00439299218             0.00312138893           
       0.714223             0.00293424488             0.00294520662           
       0.716864              0.0112796866             0.00377821694           
       0.719504             0.00589816962             0.00294825375           
       0.722144             0.00626826576             0.00281466523           
       0.724785             0.00715074847             0.00239806087           
       0.727425             0.00591033743             0.00294937937           
       0.730065              0.0102719574              0.0027503776           
       0.732706             0.00975489601             0.00225074235           
       0.735346             0.00704534418             0.00249338694           
       0.737987              0.0061549045             0.00164682065           
       0.740627             0.00875347098             0.00293030128           
       0.743267             0.00566741816             0.00157927193           
       0.745908             0.00363156779             0.00137157667           
       0.748548             0.00703225795             0.00175927949           
       0.751189             0.00799870157             0.00252821335           
       0.753829             0.00469985071             0.00178143963           
       0.756469             0.00655203638             0.00169609657           
       0.759110             0.00433587292             0.00145402286           
       0.761750             0.00608002346             0.00152246127           
       0.764390             0.00614679644             0.00160222501           
       0.767031             0.00655160568             0.00143242577           
       0.769671             0.00585682801             0.00168944527           
       0.772312             0.00589185716             0.00129000189           
       0.774952             0.00409129706             0.00145162509           
       0.777592             0.00625538021             0.00130739857           
       0.780233             0.00636983941             0.00159172912           
       0.782873             0.00655230873             0.00154399087           
       0.785513             0.00789005793             0.00181130432           
       0.788154             0.00750176138              0.0014774637           
       0.790794             0.00789894773             0.00181250349           
       0.793435             0.00638813425             0.00146430473           
       0.796075             0.00904275422             0.00167826669           
       0.798715             0.00606418452             0.00162408801           
       0.801356             0.00831936606                0.00163721           
       0.803996             0.00932451231             0.00176711596           
       0.806637             0.00464142445            0.000992178587           
       0.809277             0.00696959603             0.00131598017           
       0.811917              0.0091604205             0.00141039544           
       0.814558             0.00837771495             0.00140183157           
       0.817198             0.00699128935             0.00121662496           
       0.819838              0.0116964103             0.00159263625           
       0.822479             0.00628751624             0.00137119417           
       0.825119             0.00735172942             0.00126196665           
       0.827760             0.00670267761             0.00122059088           
       0.830400             0.00781848171             0.00124074454           
       0.833040             0.00755473735             0.00127780477           
       0.835681             0.00866648364             0.00155586306           
       0.838321             0.00746086938             0.00121165324           
       0.840961             0.00698708613              0.0012775493           
       0.843602             0.00606893022             0.00109187864           
       0.846242             0.00707561266             0.00117878756           
       0.848883             0.00988169222             0.00142559431           
       0.851523             0.00719302556             0.00120117854           
       0.854163             0.00703458588             0.00126325261           
       0.856804             0.00843967807             0.00124411296           
       0.859444             0.00859759504             0.00123034188           
       0.862085             0.00746754623             0.00119508366           
       0.864725             0.00542091727             0.00104205296           
       0.867365             0.00706091793             0.00110280793           
       0.870006             0.00750672459             0.00108355865           
       0.872646             0.00896414671              0.0012416735           
       0.875286               0.006010796            0.000978187115           
       0.877927             0.00664287203            0.000992293661           
       0.880567              0.0065438675             0.00102034677           
       0.883208             0.00780047097             0.00110351978           
       0.885848             0.00617827602             0.00101970981           
       0.888488             0.00737813844             0.00104517883           
       0.891129             0.00903683044             0.00118770191           
       0.893769             0.00569000427            0.000901943688           
       0.896410             0.00904665593             0.00106034289           
       0.899050             0.00720776946             0.00104084982           
       0.901690             0.00550529689            0.000990881552           
       0.904331             0.00884765066             0.00111365601           
       0.906971             0.00712308295             0.00106302988           
       0.909611             0.00747803369            0.000991515014           
       0.912252             0.00840709483             0.00108588723           
       0.914892             0.00669544881             0.00105897828           
       0.917533             0.00748244551             0.00105903044           
       0.920173             0.00942921828             0.00110301258           
       0.922813             0.00508815433            0.000850273381           
       0.925454             0.00807251952            0.000964391615           
       0.928094             0.00614090999            0.000897981575           
       0.930734              0.0095848963             0.00120782334           
       0.933375             0.00550792404             0.00090659468           
       0.936015              0.0085761951              0.0010274357           
       0.938656              0.0079441855              0.0010608063           
       0.941296             0.00790957628            0.000959286171           
       0.943936             0.00838467834            0.000968570028           
       0.946577             0.00792377689             0.00093534799           
       0.949217             0.00689940936            0.000802615649           
       0.951858             0.00624116122             0.00079909471           
       0.954498              0.0080866728             0.00105284603           
       0.957138             0.00738506518            0.000953177046           
       0.959779             0.00789683143            0.000971648577           
       0.962419             0.00931241915              0.0010481311           
       0.965059             0.00769405714             0.00100200472           
       0.967700             0.00831834935             0.00106707452           
       0.970340              0.0074926273            0.000896164918           
       0.972981             0.00779986688            0.000833064418           
       0.975621             0.00806403471            0.000901119677           
       0.978261              0.0066270069            0.000776191674           
       0.980902             0.00881853904             0.00107128047           
       0.983542             0.00979085253            0.000999621635           
       0.986182             0.00806412108            0.000890685174           
       0.988823             0.00686157106            0.000797769615           
       0.991463             0.00916479783            0.000983669268           
       0.994104             0.00672223664            0.000821823747           
       0.996744              0.0081470487             0.00092282364           
       0.999384             0.00809162524             0.00082250099           
       1.002025             0.00782711513            0.000902890356           
       1.004665             0.00713843633            0.000787994343           
       1.007306              0.0075700294            0.000807312486           
       1.009946             0.00760809982            0.000825413535           
       1.012586             0.00738707137            0.000792140703           
       1.015227             0.00617627979            0.000778144982           
       1.017867             0.00861283949            0.000883130443           
       1.020507             0.00842248882             0.00084592617           
       1.023148             0.00920372165            0.000954171469           
       1.025788             0.00822130098            0.000826888498           
       1.028429             0.00794922324             0.00085184629           
       1.031069             0.00694284149            0.000749160514           
       1.033709             0.00729211432            0.000816144877           
       1.036350             0.00663390357            0.000699145472           
       1.038990             0.00823972118             0.00079350113           
       1.041630             0.00823347351            0.000827315867           
       1.044271             0.00712338468            0.000723710767           
       1.046911             0.00764842034            0.000788804886           
       1.049552             0.00871698245            0.000884739284           
       1.052192             0.00794487119            0.000771270511           
       1.054832             0.00753982748            0.000758187906           
       1.057473             0.00854553291            0.000795700509           
       1.060113             0.00824825109            0.000762406724           
       1.062754             0.00816219747            0.000774332651           
       1.065394             0.00844730979            0.000832845455           
       1.068034             0.00707096052            0.000693298663           
       1.070675             0.00740339062            0.000740000395           
       1.073315             0.00752905848             0.00075695106           
       1.075955             0.00901809317            0.000782083492           
       1.078596             0.00848865431            0.000806431323           
       1.081236             0.00787002725            0.000743540219           
       1.083877             0.00961327195            0.000814401352           
       1.086517             0.00871821549            0.000831629716           
       1.089157             0.00734317066            0.000791941332           
       1.091798             0.00773150594            0.000712430357           
       1.094438             0.00814278469            0.000728773992           
       1.097078             0.00984687501            0.000768637777           
       1.099719             0.00919446946            0.000803385088           
       1.102359             0.00824548445            0.000712495041           
       1.105000             0.00808856388            0.000789090775           
       1.107640               0.010117276            0.000843829711           
       1.110280             0.00876632663            0.000716685157           
       1.112921             0.00897668272            0.000779056995           
       1.115561             0.00856494669            0.000723248415           
       1.118202             0.00973880331            0.000771946114           
       1.120842             0.00986588733            0.000816596765           
       1.123482             0.00863325555            0.000760546705           
       1.126123             0.00861316666            0.000728642489           
       1.128763             0.00975598011            0.000780793195           
       1.131403             0.00975812327            0.000752443751           
       1.134044              0.0076706379            0.000686472325           
       1.136684             0.00929549743            0.000805696452           
       1.139325              0.0104765429            0.000787947951           
       1.141965             0.00864326469            0.000720425473           
       1.144605             0.00879611392            0.000692975086           
       1.147246             0.00896182281            0.000715849155           
       1.149886             0.00868586186             0.00070223963           
       1.152527             0.00881298382            0.000717646206           
       1.155167             0.00904084008            0.000691358596           
       1.157807             0.00812795987            0.000702840384           
       1.160448              0.0103991238            0.000776332809           
       1.163088             0.00923347844            0.000697772124           
       1.165728              0.0102880369            0.000756221046           
       1.168369             0.00882335223            0.000706794496           
       1.171009             0.00814323886            0.000658958916           
       1.173650              0.0093834164            0.000725919597           
       1.176290             0.00937796056            0.000709180028           
       1.178930             0.00855915634            0.000664024642           
       1.181571             0.00984322536            0.000726215254           
       1.184211              0.0106869942            0.000759384171           
       1.186851              0.0103596231            0.000730979075           
       1.189492             0.00946365396            0.000693954181           
       1.192132             0.00899756917            0.000669057792           
       1.194773             0.00953916303            0.000691909962           
       1.197413             0.00996648766            0.000677634021           
       1.200053             0.00906202952             0.00066257306           
       1.202694              0.0108222626            0.000688548371           
       1.205334              0.0105738748            0.000733474723           
       1.207975             0.00953557911            0.000664860255           
       1.210615              0.0107007956            0.000776975415           
       1.213255             0.00962325987            0.000659803744           
       1.215896             0.00981149215            0.000678296752           
       1.218536             0.00898525405            0.000624145733           
       1.221176              0.0107087536            0.000740801404           
       1.223817               0.010864448            0.000700439832           
       1.226457             0.00953658875            0.000669462078           
       1.229098             0.00845428807            0.000630299287           
       1.231738              0.0092937393            0.000664103449           
       1.234378              0.0106754143            0.000668804394           
       1.237019             0.00906441831            0.000635068723           
       1.239659              0.0104464371             0.00067582637           
       1.242299             0.00931128047            0.000629944982           
       1.244940              0.0111636422             0.00067083927           
       1.247580             0.00966403695            0.000643246262           
       1.250221             0.00986839938            0.000646001138           
       1.252861             0.00996556182            0.000618016342           
       1.255501             0.00954120242            0.000656604724           
       1.258142             0.00952582353            0.000616500491           
       1.260782             0.00974395146            0.000637010276           
       1.263423              0.0107626939            0.000643297178           
       1.266063               0.010040055            0.000636840861           
       1.268703              0.0104345999            0.000643845908           
       1.271344             0.00967049657            0.000640830342           
       1.273984              0.0124773076            0.000703019784           
       1.276624             0.00955459162            0.000603638138           
       1.279265              0.0100835437            0.000630420181           
       1.281905              0.0105227323            0.000646861016           
       1.284546              0.0106198284            0.000628127882           
       1.287186              0.0114349918            0.000639474502           
       1.289826              0.0113297167            0.000670844248           
       1.292467              0.0105972904            0.000634507822           
       1.295107               0.010678252            0.000630600002           
       1.297747              0.0106725064            0.000603269462           
       1.300388             0.00979124348             0.00062990325           
       1.303028              0.0108173273            0.000632067767           
       1.305669              0.0104014892            0.000634557785           
       1.308309             0.00963294796            0.000604651374           
       1.310949              0.0106609636            0.000635458213           
       1.313590              0.0107942777            0.000619431513           
       1.316230              0.0105472183            0.000653410946           
       1.318871              0.0116218828            0.000671746913           
       1.321511              0.0106316081            0.000630582055           
       1.324151              0.0110423976            0.000623596796           
       1.326792              0.0100064309            0.000597294481           
       1.329432              0.0108658533            0.000618023834           
       1.332072              0.0107248867            0.000604851319           
       1.334713              0.0105882646            0.000620277644           
       1.337353              0.0106066875            0.000595375915           
       1.339994              0.0114972534            0.000650488531           
       1.342634              0.0115075431            0.000624056717           
       1.345274               0.010682109            0.000622246091           
       1.347915              0.0106451977            0.000604016559           
       1.350555              0.0105640562            0.000612248397           
       1.353195              0.0116891133            0.000647188667           
       1.355836               0.011591261            0.000634424729           
       1.358476              0.0116537311            0.000617780772           
       1.361117              0.0117240277            0.000620491765           
       1.363757              0.0118871777            0.000643871998           
       1.366397             0.00976788638            0.000565998431           
       1.369038              0.0115091897            0.000620497852           
       1.371678              0.0110559393            0.000602795485           
       1.374319              0.0110056314            0.000596243705           
       1.376959              0.0118751569            0.000613121286           
       1.379599               0.010826107            0.000627386196           
       1.382240              0.0113586655            0.000603977765           
       1.384880               0.010763552            0.000622765056           
       1.387520              0.0116518956            0.000615382679           
       1.390161              0.0111532373            0.000571822474           
       1.392801              0.0116633725            0.000609256455           
       1.395442               0.010994372            0.000599604119           
       1.398082              0.0117841327            0.000581320688           
       1.400722              0.0110399305            0.000589378989           
       1.403363              0.0104913056             0.00060478148           
       1.406003              0.0113258649            0.000588075283           
       1.408644              0.0107652417            0.000600606628           
       1.411284              0.0115283181            0.000588532555           
       1.413924              0.0110799336             0.00057483481           
       1.416565              0.0107928521            0.000565110368           
       1.419205              0.0112047683            0.000600644284           
       1.421845              0.0112416039            0.000601277516           
       1.424486              0.0108372303             0.00056747565           
       1.427126              0.0122494315            0.000626730388           
       1.429767              0.0125783289            0.000597541092           
       1.432407              0.0108760304            0.000581487573           
       1.435047              0.0110935175            0.000551546608           
       1.437688              0.0117866466            0.000577016341           
       1.440328              0.0103498198            0.000551848861           
       1.442968              0.0112968448            0.000589461633           
       1.445609              0.0118680028            0.000585013033           
       1.448249              0.0107279404            0.000570287749           
       1.450890              0.0108012069            0.000568496891           
       1.453530              0.0110129766            0.000600564274           
       1.456170              0.0114655207            0.000594716605           
       1.458811              0.0112285437            0.000562773045           
       1.461451              0.0114960027            0.000570929877           
       1.464092              0.0112007897            0.000567235968           
       1.466732              0.0114919056             0.00056962276           
       1.469372               0.011000357            0.000544264558           
       1.472013              0.0107091224            0.000579177662           
       1.474653              0.0112054844            0.000583308658           
       1.477293              0.0105683251            0.000578421647           
       1.479934                0.01071747             0.00055581602           
       1.482574              0.0122918209            0.000575802928           
       1.485215                0.01091224            0.000552633415           
       1.487855              0.0113477532            0.000570987668           
       1.490495              0.0105092428            0.000547463386           
       1.493136              0.0104877256            0.000539406317           
       1.495776              0.0107600428            0.000543876591           
       1.498416              0.0103736264            0.000551493072           
       1.501057              0.0115181773            0.000568314046           
       1.503697             0.00891888074            0.000488921702           
       1.506338              0.0107029549            0.000545381531           
       1.508978              0.0102831913            0.000529322574           
       1.511618              0.0105067648             0.00056982117           
       1.514259              0.0106308892            0.000553375692           
       1.516899               0.010878281              0.0005450377           
       1.519540              0.0102894293            0.000538628717           
       1.522180              0.0108060832            0.000556834852           
       1.524820               0.011530229            0.000571962776           
       1.527461              0.0110740858            0.000563307233           
       1.530101              0.0106380388            0.000546583976           
       1.532741             0.00987947257            0.000523679138           
       1.535382              0.0109541427            0.000560303735           
       1.538022              0.0102862868            0.000511492116           
       1.540663              0.0103492105            0.000551821466           
       1.543303               0.010190614            0.000508434127           
       1.545943              0.0108594629            0.000555519437           
       1.548584              0.0104193823            0.000553914563           
       1.551224              0.0106008377            0.000516586672           
       1.553864              0.0104479387            0.000541919428           
       1.556505              0.0105192353            0.000525291366           
       1.559145              0.0109767959            0.000543167425           
       1.561786              0.0100399558            0.000519871689           
       1.564426              0.0114778133            0.000538563542           
       1.567066              0.0102948894            0.000534441192           
       1.569707              0.0104473476            0.000528712882           
       1.572347              0.0104726533            0.000546874388           
       1.574988              0.0104717305            0.000520509791           
       1.577628              0.0102931332            0.000538114999           
       1.580268              0.0109964762            0.000538894949           
       1.582909             0.00968876514            0.000536168295           
       1.585549             0.00861147973            0.000490806992           
       1.588189             0.00935505894             0.00050039332           
       1.590830             0.00925242741            0.000497016325           
       1.593470              0.0101776325            0.000541914467           
       1.596111              0.0112727396            0.000556813979           
       1.598751             0.00972274609             0.00050107025           
       1.601391             0.00957928685            0.000508332994           
       1.604032             0.00988935906            0.000527292001           
       1.606672             0.00870300694            0.000480603598           
       1.609312             0.00952516321            0.000524856296           
       1.611953             0.00913722587            0.000503036936           
       1.614593             0.00989476324             0.00051348687           
       1.617234             0.00825497467            0.000486073751           
       1.619874               0.010109901            0.000535795147           
       1.622514             0.00952738212            0.000513034913           
       1.625155             0.00893762385             0.00049983793           
       1.627795              0.0104998243            0.000528488649           
       1.630436             0.00847165692            0.000472231708           
       1.633076             0.00899054545            0.000492859239           
       1.635716             0.00924546643            0.000492021321           
       1.638357             0.00905392377            0.000488181315           
       1.640997             0.00871680452             0.00049351656           
       1.643637             0.00943910383            0.000499748621           
       1.646278             0.00901632355            0.000503774936           
       1.648918             0.00925079561            0.000511675321           
       1.651559             0.00893742889            0.000506837781           
       1.654199             0.00881586669            0.000489580401           
       1.656839             0.00968692347            0.000513376544           
       1.659480              0.0085538098            0.000500532981           
       1.662120             0.00909243203            0.000486035379           
       1.664761             0.00900399445            0.000502404018           
       1.667401             0.00849932673            0.000466539446           
       1.670041             0.00887301042              0.0004839535           
       1.672682             0.00869004291            0.000476969267           
       1.675322             0.00822189493            0.000460960441           
       1.677962             0.00940118588            0.000487474126           
       1.680603             0.00903595019            0.000479381802           
       1.683243             0.00835552245            0.000480945941           
       1.685884             0.00836734236            0.000484840123           
       1.688524             0.00889407909            0.000490205416           
       1.691164             0.00859150994            0.000481904434           
       1.693805             0.00987939953            0.000522439891           
       1.696445             0.00918643997            0.000506706665           
       1.699085             0.00906560036            0.000486496245           
       1.701726             0.00874875082            0.000460391458           
       1.704366             0.00812514442            0.000467404637           
       1.707007             0.00739284664            0.000435906052           
       1.709647             0.00846453684            0.000471699795           
       1.712287             0.00955816161            0.000505609378           
       1.714928             0.00893665591            0.000492836601           
       1.717568             0.00887386042            0.000462620064           
       1.720209             0.00804046902            0.000461247614           
       1.722849               0.008905785            0.000482937615           
       1.725489             0.00842091075            0.000470001216           
       1.728130             0.00782131388            0.000481368944           
       1.730770             0.00932218701            0.000499111806           
       1.733410             0.00854529869            0.000470350542           
       1.736051             0.00866743235            0.000476997026           
       1.738691             0.00886316753             0.00047257501           
       1.741332             0.00953316835            0.000504442695           
       1.743972             0.00817157185            0.000482289151           
       1.746612             0.00816280194            0.000462871954           
       1.749253             0.00803560616             0.00046832095           
       1.751893             0.00771462761            0.000455503996           
       1.754533             0.00842908163            0.000475684575           
       1.757174             0.00995598681            0.000512135625           
       1.759814             0.00953136626            0.000493499759           
       1.762455             0.00788087806              0.0004569818           
       1.765095             0.00837921364             0.00045076834           
       1.767735              0.0082698746            0.000461632848           
       1.770376             0.00823180586            0.000461783291           
       1.773016             0.00934988645             0.00048884932           
       1.775657             0.00851254249            0.000459734606           
       1.778297             0.00824199853            0.000448474721           
       1.780937             0.00838156625            0.000477355995           
       1.783578             0.00903001757             0.00048308863           
       1.786218             0.00858383691             0.00049154268           
       1.788858             0.00876106013            0.000471641617           
       1.791499             0.00839860066            0.000456596028           
       1.794139             0.00910485948            0.000471549625           
       1.796780             0.00834020936            0.000449138724           
       1.799420              0.0084812823            0.000450413173           
       1.802060             0.00898636189            0.000467375681           
       1.804701              0.0088689054            0.000445574166           
       1.807341             0.00886986119            0.000468226761           
       1.809981              0.0087547989            0.000466730792           
       1.812622             0.00932236946            0.000472951466           
       1.815262             0.00948142353            0.000487100966           
       1.817903             0.00815796593            0.000445133342           
       1.820543             0.00913529641            0.000478382857           
       1.823183             0.00887765242            0.000471329407           
       1.825824             0.00867222156            0.000445048635           
       1.828464             0.00943323657            0.000483912374           
       1.831105              0.0080626508            0.000435009621           
       1.833745             0.00882174006            0.000464744888           
       1.836385             0.00856889974            0.000471108081           
       1.839026             0.00836249264            0.000463929078           
       1.841666              0.0078350957             0.00044746921           
       1.844306             0.00808853865            0.000442243474           
       1.846947             0.00793719956            0.000441926833           
       1.849587             0.00709725173            0.000461451703           
       1.852228             0.00836163731            0.000452912469           
       1.854868             0.00873395801            0.000488970733           
       1.857508             0.00888158008            0.000488249595           
       1.860149             0.00901138876            0.000500740045           
       1.862789             0.00867730854            0.000474286061           
       1.865429             0.00841438317             0.00048752381           
       1.868070             0.00889944323             0.00049469646           
       1.870710             0.00862482876            0.000475776432           
       1.873351             0.00767933858            0.000454491273           
       1.875991             0.00791903411            0.000469062062           
       1.878631             0.00784690079              0.0004579783           
       1.881272             0.00821120396            0.000465349822           
       1.883912             0.00736814645            0.000458759033           
       1.886553             0.00766976141             0.00046282165           
       1.889193             0.00796580433            0.000470863318           
       1.891833             0.00910902592            0.000522924295           
       1.894474             0.00785029637            0.000481223739           
       1.897114             0.00866422592            0.000489215573           
       1.899754             0.00848897417            0.000486268713           
       1.902395             0.00811296656            0.000466083239           
       1.905035             0.00842369235            0.000503025011           
       1.907676             0.00761815023            0.000450864263           
       1.910316             0.00808646789            0.000476849475           
       1.912956             0.00786985744            0.000460070206           
       1.915597              0.0082033478            0.000472342141           
       1.918237             0.00881850285            0.000505774087           
       1.920878             0.00781819085            0.000474275599           
       1.923518             0.00771919707            0.000471463354           
       1.926158             0.00852475759            0.000489024252           
       1.928799             0.00884558252            0.000492375231           
       1.931439             0.00787073994            0.000476634016           
       1.934079             0.00755296238            0.000486745256           
       1.936720              0.0089903428            0.000492028469           
       1.939360              0.0084625979            0.000509285859           
       1.942001             0.00815063582            0.000458102072           
       1.944641              0.0077314445            0.000454954848           
       1.947281             0.00793447793            0.000456641609           
       1.949922             0.00831429898            0.000482827785           
       1.952562             0.00790532672            0.000485560753           
       1.955202             0.00743003638            0.000470164054           
       1.957843             0.00766461391            0.000465144594           
       1.960483             0.00852771811            0.000512959095           
       1.963124             0.00875802414              0.0005091749           
       1.965764             0.00804059192            0.000460079118           
       1.968404             0.00838191895            0.000465304604           
       1.971045             0.00765875151            0.000453475929           
       1.973685             0.00780164369            0.000480079196           
       1.976326             0.00829588766            0.000488248637           
       1.978966             0.00800893196            0.000483940075           
       1.981606              0.0074964411            0.000477965098           
       1.984247              0.0076964069            0.000481113924           
       1.986887             0.00738996335            0.000465791229           
       1.989527             0.00777701239             0.00047268749           
       1.992168             0.00747740507            0.000480913256           
       1.994808             0.00750643514            0.000479780422           
       1.997449              0.0077002657            0.000475955943           
       2.000089              0.0082265985             0.00049000306           
       2.002729             0.00840829148            0.000495681619           
       2.005370             0.00714444146              0.0004519963           
       2.008010             0.00775007437              0.0004913102           
       2.010650             0.00663386919            0.000457946665           
       2.013291             0.00802611538            0.000483285843           
       2.015931             0.00799288323            0.000478875066           
       2.018572             0.00763083937            0.000500467447           
       2.021212             0.00802826961            0.000504111792           
       2.023852             0.00874882956            0.000498069403           
       2.026493              0.0072030271            0.000472122636           
       2.029133             0.00732930174            0.000466659063           
       2.031774             0.00739508349            0.000491941194           
       2.034414             0.00820980779            0.000476937582           
       2.037054             0.00768206911            0.000473047662           
       2.039695             0.00722683514            0.000455352142           
       2.042335             0.00777547075            0.000490844531           
       2.044975             0.00699349626            0.000459863335           
       2.047616             0.00719105158             0.00046515496           
       2.050256             0.00661584702            0.000450385944           
       2.052897             0.00797940301            0.000503745135           
       2.055537             0.00753742258            0.000473175088           
       2.058177             0.00829031293            0.000485957396           
       2.060818             0.00806109181            0.000501990861           
       2.063458             0.00732456787            0.000498653647           
       2.066098             0.00787481905            0.000487746575           
       2.068739             0.00772805754            0.000490690725           
       2.071379             0.00753984276            0.000497319145           
       2.074020             0.00696488612            0.000467593585           
       2.076660             0.00800454525            0.000505331729           
       2.079300             0.00769627555            0.000507646451           
       2.081941             0.00772348811            0.000465629168           
       2.084581             0.00769188965            0.000490469734           
       2.087222             0.00718095503            0.000457031346           
       2.089862             0.00789389458            0.000521902374           
       2.092502             0.00804333896            0.000510676244           
       2.095143             0.00822974595            0.000533425349           
       2.097783             0.00660982547            0.000462835113           
       2.100423             0.00770241324            0.000481435286           
       2.103064             0.00708832052            0.000479226183           
       2.105704             0.00746217959            0.000489266178           
       2.108345             0.00773640712            0.000478613047           
       2.110985             0.00679265153            0.000478999677           
       2.113625             0.00843017271            0.000538278704           
       2.116266             0.00841923711            0.000545561414           
       2.118906             0.00792389048            0.000493249113           
       2.121546             0.00838374721            0.000497672872           
       2.124187             0.00731990909            0.000488134229           
       2.126827             0.00674623931            0.000473846297           
       2.129468             0.00728552163             0.00049367924           
       2.132108              0.0077300136            0.000494747423           
       2.134748             0.00677305196            0.000461314781           
       2.137389             0.00833126337            0.000533762824           
       2.140029             0.00785064878            0.000463868996           
       2.142670             0.00763847197            0.000489001715           
       2.145310             0.00682403101             0.00044986515           
       2.147950             0.00800453457            0.000501487684           
       2.150591             0.00808557449            0.000498926228           
       2.153231             0.00790101864            0.000507671983           
       2.155871             0.00705864234            0.000463563535           
       2.158512             0.00626153728            0.000455566838           
       2.161152             0.00743792093            0.000480960969           
       2.163793             0.00736405096            0.000476412211           
       2.166433             0.00839339035             0.00052229888           
       2.169073             0.00756223609            0.000484727181           
       2.171714             0.00762476852            0.000483088652           
       2.174354             0.00682039184            0.000477415008           
       2.176995             0.00816063315            0.000520022422           
       2.179635             0.00749486655            0.000526623264           
       2.182275             0.00761703367            0.000501251881           
       2.184916             0.00742676235             0.00047805908           
       2.187556             0.00759123732             0.00047847942           
       2.190196             0.00728022271            0.000489654785           
       2.192837              0.0076895122            0.000500492641           
       2.195477              0.0070199448            0.000455912759           
       2.198118             0.00653062723            0.000451003928           
       2.200758             0.00826124329            0.000520411937           
       2.203398              0.0071090077            0.000485845877           
       2.206039             0.00737254354            0.000468257211           
       2.208679             0.00766441236            0.000488547341           
       2.211319             0.00682592829            0.000463708471           
       2.213960             0.00780024338            0.000502340774           
       2.216600             0.00727492865            0.000501856849           
       2.219241             0.00793979957            0.000501078048           
       2.221881             0.00704495705            0.000472968046           
       2.224521             0.00789872496            0.000506944665           
       2.227162             0.00681439883            0.000461436573           
       2.229802             0.00767161986            0.000504926854           
       2.232443             0.00801327077             0.00050790812           
       2.235083             0.00771884566            0.000513194063           
       2.237723             0.00640943785            0.000448772363           
       2.240364             0.00739730728            0.000493994901           
       2.243004             0.00704864905            0.000478363363           
       2.245644             0.00706122989            0.000483582495           
       2.248285             0.00722519044            0.000479365212           
       2.250925             0.00722072125            0.000482127984           
       2.253566              0.0073173493            0.000518869027           
       2.256206             0.00685739547            0.000492253386           
       2.258846             0.00812928989            0.000509849785           
       2.261487             0.00727051744             0.00050608029           
       2.264127             0.00809544974            0.000515747745           
       2.266767             0.00782290299            0.000520499312           
       2.269408             0.00857585218            0.000547204481           
       2.272048              0.0066802432            0.000480072704           
       2.274689             0.00712558884            0.000502349865           
       2.277329             0.00690913772            0.000465755386           
       2.279969             0.00769260979            0.000523124564           
       2.282610             0.00693297394            0.000482811914           
       2.285250             0.00764685726            0.000485325697           
       2.287891             0.00740952663            0.000512204013           
       2.290531             0.00687582387            0.000500045255           
       2.293171             0.00714381777             0.00049649102           
       2.295812              0.0065763623            0.000474449338           
       2.298452             0.00722314199            0.000519973713           
       2.301092             0.00698352227            0.000475038409           
       2.303733             0.00614518747            0.000463594447           
       2.306373             0.00736419178             0.00051548899           
       2.309014             0.00721918247            0.000500431947           
       2.311654             0.00730664506            0.000525378417           
       2.314294             0.00741469509            0.000487598859           
       2.316935             0.00782535382            0.000502989109           
       2.319575             0.00593177537            0.000458843196           
       2.322215             0.00725272199            0.000528762366           
       2.324856             0.00782412976            0.000504929555           
       2.327496              0.0069624875            0.000506473261           
       2.330137              0.0062639655            0.000459702614           
       2.332777             0.00660512645            0.000486739325           
       2.335417             0.00728452111            0.000495901068           
       2.338058             0.00785055121            0.000530185622           
       2.340698             0.00728418083            0.000506689477           
       2.343339             0.00692163126            0.000504788175           
       2.345979             0.00738106865            0.000493164964           
       2.348619             0.00690495039             0.00049442979           
       2.351260             0.00671047035            0.000484577365           
       2.353900             0.00752492327            0.000511516612           
       2.356540             0.00756401031            0.000512115395           
       2.359181             0.00792102519            0.000516714679           
       2.361821             0.00726288257             0.00047794702           
       2.364462             0.00750821485            0.000508245245           
       2.367102             0.00799464015              0.0005389567           
       2.369742             0.00721086591            0.000538764197           
       2.372383             0.00727373614            0.000489971773           
       2.375023             0.00817652607            0.000546095944           
       2.377663             0.00653519295            0.000466808051           
       2.380304             0.00675808797            0.000482617074           
       2.382944             0.00599609663            0.000432987767           
       2.385585             0.00729267858            0.000509275436           
       2.388225             0.00719139456             0.00050335016           
       2.390865             0.00628607445            0.000465767486           
       2.393506             0.00841210607            0.000528640008           
       2.396146             0.00727080018            0.000531401681           
       2.398787             0.00766811841            0.000502930687           
       2.401427             0.00694582777            0.000462015761           
       2.404067             0.00787814184            0.000503022513           
       2.406708             0.00677972758             0.00046104389           
       2.409348             0.00755410074            0.000516200371           
       2.411988             0.00715407435            0.000492188749           
       2.414629             0.00865420362            0.000558197341           
       2.417269             0.00752867491            0.000526713702           
       2.419910             0.00797922812            0.000543503539           
       2.422550             0.00819918532            0.000527109042           
       2.425190             0.00769282672            0.000538197562           
       2.427831             0.00695009459            0.000508681449           
       2.430471             0.00751588216            0.000503957105           
       2.433112             0.00631536745            0.000449837403           
       2.435752             0.00671229561            0.000490801175           
       2.438392             0.00734709891            0.000495618225           
       2.441033             0.00815915381             0.00055352264           
       2.443673             0.00691061415             0.00050980595           
       2.446313             0.00640049471            0.000491061736           
       2.448954             0.00689167816            0.000485168426           
       2.451594             0.00717176293            0.000532164445           
       2.454235             0.00656560325            0.000477739603           
       2.456875             0.00786677356             0.00054718316           
       2.459515             0.00768312152            0.000554757166           
       2.462156             0.00774967595            0.000526031684           
       2.464796              0.0077690135            0.000519892431           
       2.467436             0.00762253915            0.000532537573           
       2.470077             0.00778046801            0.000509951017           
       2.472717             0.00747677081            0.000502064881           
       2.475358             0.00770588478            0.000515014001           
       2.477998               0.007218213            0.000490048004           
       2.480638             0.00719083935            0.000497809087           
       2.483279             0.00734836137            0.000525957698           
       2.485919             0.00730014151            0.000505214685           
       2.488560             0.00764365298            0.000515520124           
       2.491200             0.00663443472            0.000494564436           
       2.493840             0.00702069321            0.000538332176           
       2.496481             0.00709809841            0.000532437326           
       2.499121             0.00568053787            0.000463290229           
       2.501761             0.00561593051            0.000466751447           
       2.504402             0.00689021124            0.000509447287           
       2.507042             0.00690373654            0.000506169408           
       2.509683             0.00629173625            0.000475828289           
       2.512323             0.00634528476            0.000501860027           
       2.514963             0.00706915041            0.000523168711           
       2.517604             0.00824851893            0.000586406284           
       2.520244             0.00725717364            0.000515663638           
       2.522884             0.00654503373            0.000496712999           
       2.525525             0.00875487535            0.000580999994           
       2.528165             0.00716986668            0.000517587429           
       2.530806             0.00777309846            0.000548314719           
       2.533446             0.00692376416            0.000506446843           
       2.536086             0.00705749468            0.000506737931           
       2.538727             0.00737544098            0.000496967861           
       2.541367             0.00652005038            0.000471864013           
       2.544008             0.00723184553             0.00051323189           
       2.546648             0.00603071292            0.000476715796           
       2.549288             0.00795525283            0.000558679033           
       2.551929             0.00672424118            0.000505450382           
       2.554569             0.00715924263            0.000502463384           
       2.557209             0.00707244642            0.000503994703           
       2.559850             0.00678280016            0.000495151417           
       2.562490             0.00702437208            0.000520799206           
       2.565131             0.00735645655            0.000552604918           
       2.567771             0.00724147279            0.000528613841           
       2.570411             0.00720489016            0.000521571853           
       2.573052             0.00650525164            0.000501842797           
       2.575692             0.00707872624            0.000520325775           
       2.578332             0.00732636787            0.000531538049           
       2.580973             0.00742473213            0.000530003136           
       2.583613             0.00702667147            0.000503323034           
       2.586254             0.00665260877            0.000489062076           
       2.588894             0.00623432979            0.000491642503           
       2.591534             0.00656651198            0.000522325209           
       2.594175              0.0060761392             0.00049296239           
       2.596815              0.0067993627            0.000524550399           
       2.599456             0.00820004909            0.000546267002           
       2.602096             0.00641903704            0.000486994761           
       2.604736             0.00724457259            0.000529631255           
       2.607377             0.00646048805            0.000486968979           
       2.610017             0.00658864877            0.000483169519           
       2.612657              0.0064972081             0.00051034493           
       2.615298             0.00768125167            0.000541759072           
       2.617938             0.00674239991            0.000542972066           
       2.620579             0.00749484194            0.000549563808           
       2.623219             0.00740039629            0.000545311751           
       2.625859             0.00759908044            0.000537266128           
       2.628500             0.00660075875            0.000497450499           
       2.631140             0.00664191066            0.000506687469           
       2.633780             0.00702158954            0.000520515496           
       2.636421             0.00838460179            0.000582784629           
       2.639061             0.00713976274            0.000506262849           
       2.641702             0.00672001645            0.000502526429           
       2.644342             0.00769363186            0.000539990384           
       2.646982             0.00735765394            0.000520173688           
       2.649623             0.00636956223            0.000507198707           
       2.652263             0.00751846156            0.000545516253           
       2.654904             0.00697657512            0.000526018519           
       2.657544             0.00710098214            0.000499852865           
       2.660184             0.00630464526            0.000498446429           
       2.662825             0.00676836247            0.000528433605           
       2.665465             0.00740656696             0.00053463519           
       2.668105             0.00672726019            0.000537062197           
       2.670746             0.00760334437            0.000527447854           
       2.673386             0.00840403431            0.000571482438           
       2.676027             0.00799700026             0.00054852431           
       2.678667              0.0109259704            0.000625605994           
       2.681307             0.00929998354            0.000567113101           
       2.683948              0.0142978606            0.000722480881           
       2.686588              0.0128266076            0.000672952144           
       2.689229              0.0109960671            0.000608852435           
       2.691869             0.00891811695            0.000579514182           
       2.694509             0.00920713871            0.000589153421           
       2.697150             0.00769864657            0.000529992195           
       2.699790             0.00707794474            0.000532751637           
       2.702430             0.00773050873            0.000532204481           
       2.705071             0.00769642356            0.000548719175           
       2.707711             0.00685956243            0.000502785723           
       2.710352             0.00677710037            0.000528053149           
       2.712992             0.00644254722            0.000524374137           
       2.715632             0.00752832475            0.000525916442           
       2.718273             0.00651306953            0.000506959593           
       2.720913             0.00694135122            0.000521873239           
       2.723553             0.00895273572            0.000596657456           
       2.726194             0.00707405681            0.000554414675           
       2.728834             0.00800596069            0.000590079983           
       2.731475              0.0079963988             0.00054426677           
       2.734115             0.00698938588            0.000524635526           
       2.736755             0.00809853522            0.000569378921           
       2.739396             0.00694968283            0.000524393242           
       2.742036             0.00732419222            0.000563404151           
       2.744677             0.00730270062            0.000545854711           
       2.747317             0.00751297988            0.000549709819           
       2.749957             0.00696788032            0.000533107611           
       2.752598             0.00707534622            0.000543032974           
       2.755238             0.00750529817            0.000569385496           
       2.757878             0.00665363683            0.000531420291           
       2.760519             0.00775644929            0.000567689096           
       2.763159             0.00775970514            0.000562133986           
       2.765800             0.00802425867            0.000544760344           
       2.768440              0.0074193144            0.000527682369           
       2.771080              0.0084290799            0.000567140729           
       2.773721             0.00736699881            0.000543885077           
       2.776361             0.00734606813            0.000550604667           
       2.779001             0.00821957462            0.000603156038           
       2.781642             0.00675677132            0.000542827986           
       2.784282              0.0073294194            0.000574659828           
       2.786923              0.0077344447            0.000595521926           
       2.789563             0.00679171028            0.000537467261           
       2.792203             0.00736196733            0.000534555245           
       2.794844             0.00679261984            0.000562753738           
       2.797484             0.00737702748            0.000553477756           
       2.800125             0.00711544396            0.000571570616           
       2.802765             0.00711730234            0.000561811021           
       2.805405             0.00727752472            0.000570022275           
       2.808046             0.00684341819            0.000562477147           
       2.810686             0.00796267183            0.000557517242           
       2.813326             0.00699706623            0.000542859021           
       2.815967             0.00650597323            0.000538345587           
       2.818607             0.00693665651             0.00053046077           
       2.821248             0.00714874325            0.000527329121           
       2.823888             0.00694389566            0.000539481376           
       2.826528             0.00662578887            0.000510353535           
       2.829169             0.00637978494            0.000524549096           
       2.831809             0.00686917236             0.00055169985           
       2.834449              0.0071201434            0.000565237551           
       2.837090             0.00699127213            0.000540966732           
       2.839730               0.006712534            0.000527484976           
       2.842371             0.00636023935            0.000514197448           
       2.845011             0.00747241215            0.000561786927           
       2.847651             0.00823510936            0.000590485119           
       2.850292             0.00629900784            0.000521496973           
       2.852932             0.00630076272            0.000532936356           
       2.855573             0.00623034054            0.000514066185           
       2.858213             0.00688368628            0.000567431103           
       2.860853             0.00711330136            0.000536572518           
       2.863494             0.00762653659            0.000575238682           
       2.866134             0.00679583327              0.0005643889           
       2.868774             0.00582599869            0.000513576621           
       2.871415             0.00783999359            0.000605048978           
       2.874055             0.00686716232             0.00054128094           
       2.876696             0.00625164442            0.000530422826           
       2.879336             0.00729400939            0.000552202844           
       2.881976             0.00675790752            0.000548228751           
       2.884617             0.00782383475            0.000581219188           
       2.887257             0.00697296684            0.000551537163           
       2.889897              0.0066042866            0.000525711489           
       2.892538             0.00693395766            0.000590118096           
       2.895178             0.00630840688             0.00050851564           
       2.897819             0.00725354649            0.000556237832           
       2.900459             0.00684914426            0.000529995065           
       2.903099             0.00858555994            0.000587312949           
       2.905740             0.00749038472            0.000562769554           
       2.908380             0.00652922762             0.00053139346           
       2.911021              0.0083142999            0.000609399769           
       2.913661             0.00718134584            0.000566190048           
       2.916301             0.00666910571            0.000546143884           
       2.918942             0.00658731589             0.00051918682           
       2.921582             0.00752713872            0.000580678382           
       2.924222             0.00786315154              0.0005749851           
       2.926863             0.00721822168            0.000573826734           
       2.929503             0.00690092272            0.000567720119           
       2.932144              0.0072335113            0.000557954586           
       2.934784             0.00658257342            0.000523530406           
       2.937424             0.00612308544            0.000510111715           
       2.940065             0.00619262611             0.00048935376           
       2.942705             0.00637051671            0.000495709939           
       2.945346             0.00783309428            0.000583345615           
       2.947986             0.00710547631            0.000566511407           
       2.950626             0.00651620453            0.000539457546           
       2.953267             0.00561764758             0.00049279106           
       2.955907             0.00655298612            0.000552122915           
       2.958547             0.00728727527            0.000549660251           
       2.961188             0.00586182793            0.000514314573           
       2.963828             0.00708049869            0.000552923639           
       2.966469             0.00802540375            0.000577476285           
       2.969109             0.00650509592            0.000527612521           
       2.971749               0.006724791            0.000533101461           
       2.974390             0.00772356672            0.000561426451           
       2.977030             0.00632574279            0.000519443754           
       2.979670             0.00859712414            0.000589026658           
       2.982311             0.00949512066            0.000641588865           
       2.984951             0.00703146519             0.00052510987           
       2.987592             0.00641712516            0.000511693752           
       2.990232             0.00764322767             0.00058077391           
       2.992872             0.00833001824            0.000571105738           
       2.995513             0.00846976092            0.000563396464           
       2.998153               0.012814884            0.000704647577           
       3.000794              0.0111545433            0.000636775299           
       3.003434               0.010094049            0.000606664039           
       3.006074              0.0224471459             0.00089200238           
       3.008715              0.0755623319             0.00157981611           
       3.011355               0.252292718             0.00278374057           
       3.013995               0.198923289             0.00247855875           
       3.016636               0.106487462             0.00177579743           
       3.019276                 0.1458388              0.0020427972           
       3.021917               0.522038052             0.00371630188           
       3.024557                1.18882171             0.00551376493           
       3.027197                1.06886784             0.00509721622           
       3.029838               0.693460287             0.00416388616           
       3.032478               0.267494987             0.00258873283           
       3.035118              0.0735588414             0.00137573452           
       3.037759              0.0706025797             0.00134606732           
       3.040399              0.0935557989             0.00159834898           
       3.043040               0.307037534             0.00293104801           
       3.045680               0.373387859             0.00304110525           
       3.048320               0.138632508             0.00189335068           
       3.050961               0.142483162             0.00195328685           
       3.053601               0.102884026             0.00159859772           
       3.056242              0.0933503443             0.00161898652           
       3.058882              0.0915063081               0.001719453           
       3.061522              0.0698225114             0.00147361592           
       3.064163              0.0873282616             0.00162727311           
       3.066803               0.161259482             0.00232801205           
       3.069443               0.107224782             0.00198613247           
       3.072084               0.038315665             0.00115608227           
       3.074724              0.0433619809               0.001373471           
       3.077365              0.0434910506             0.00142389666           
       3.080005              0.0111487421              0.0007250124           
       3.082645              0.0155875127            0.000900588976           
       3.085286              0.0124554175            0.000811391306           
       3.087926              0.0114392875            0.000771597033           
       3.090566              0.0112322337            0.000749142892           
       3.093207              0.0144884751            0.000885376951           
       3.095847             0.00918754507            0.000675774476           
       3.098488             0.00861756524            0.000725702884           
       3.101128             0.00872233061             0.00073479615           
       3.103768             0.00841185043            0.000708023896           
       3.106409             0.00969314123            0.000808883212           
       3.109049             0.00745414096             0.00068071518           
       3.111690             0.00815767652            0.000699889803           
       3.114330              0.0084937009            0.000729351504           
       3.116970             0.00718182014            0.000675813816           
       3.119611              0.0103904074            0.000865256452           
       3.122251              0.0151483228             0.00109283968           
       3.124891              0.0349276671             0.00167488724           
       3.127532              0.0295638572             0.00150747261           
       3.130172              0.0189791385             0.00122870429           
       3.132813              0.0112137547            0.000929790623           
       3.135453              0.0075630135            0.000757294653           
       3.138093             0.00694003462            0.000786034067           
       3.140734             0.00666933718            0.000710893437           
       3.143374              0.0080479342            0.000825854825           
       3.146014             0.00724782306            0.000843718795           
       3.148655             0.00721031709            0.000782282782           
       3.151295             0.00664293047            0.000800172468           
       3.153936             0.00602112133            0.000735878321           
       3.156576             0.00532581057            0.000682672397           
       3.159216              0.0054734102            0.000695529129           
       3.161857             0.00521558018            0.000676186581           
       3.164497             0.00724293405            0.000837251883           
       3.167138             0.00855868131            0.000940383959           
       3.169778             0.00558193815            0.000746917249           
       3.172418             0.00615954112            0.000776629816           
       3.175059             0.00599593185            0.000679309522           
       3.177699             0.00652470088            0.000750396523           
       3.180339             0.00542973339            0.000733433103           
       3.182980             0.00570235152            0.000777098562           
       3.185620               0.003944164            0.000658190074           
       3.188261             0.00660280639            0.000866802058           
       3.190901             0.00557566377            0.000732579466           
       3.193541             0.00615863926            0.000809006265           
       3.196182             0.00554819674            0.000800226505           
       3.198822             0.00644817735            0.000862980599           
       3.201463             0.00612714666            0.000826730949           
       3.204103             0.00595463397             0.00081005074           
       3.206743             0.00684951677            0.000868708137           
       3.209384             0.00577802665            0.000862033501           
       3.212024             0.00511188169            0.000755939094           
       3.214664             0.00680499394            0.000991802419           
       3.217305             0.00561213266            0.000856167886           
       3.219945             0.00553398508            0.000875060861           
       3.222586             0.00590073506            0.000860656265           
       3.225226             0.00462545123             0.00084531789           
       3.227866             0.00579618689            0.000864879531           
       3.230507             0.00526463501             0.00085444404           
       3.233147             0.00562607958            0.000890420621           
       3.235787             0.00498341021            0.000857611147           
       3.238428             0.00532172023            0.000956369009           
       3.241068             0.00479156596            0.000848541135           
       3.243709             0.00578140609            0.000962981668           
       3.246349              0.0074790884            0.000998450892           
       3.248989             0.00520186207            0.000983217938           
       3.251630             0.00412949525            0.000843592769           
       3.254270             0.00548625907            0.000869017037           
       3.256911             0.00523494178            0.000926221777           
       3.259551             0.00475506122            0.000950357767           
       3.262191             0.00473036865            0.000968219226           
       3.264832              0.0053792012              0.0010787955           
       3.267472             0.00757775341             0.00120116615           
       3.270112             0.00440114801             0.00101164513           
       3.272753             0.00486823044            0.000973880248           
       3.275393             0.00669827291             0.00116560094           
       3.278034             0.00734140773             0.00122096322           
       3.280674              0.0057319293             0.00117070813           
       3.283314             0.00573120601             0.00104696182           
       3.285955             0.00634399365             0.00113651845           
       3.288595             0.00609553404             0.00123941184           
       3.291235             0.00556193003             0.00121706009           
       3.293876             0.00573311228             0.00125340333           
       3.296516              0.0045366061             0.00107039122           
       3.299157              0.0058817123             0.00120347575           
       3.301797             0.00513112633             0.00128220499           
       3.304437             0.00669976609             0.00126937462           
       3.307078             0.00668559844              0.0013968151           
       3.309718              0.0071614117             0.00149218751           
       3.312359             0.00683024412             0.00145762345           
       3.314999             0.00601745483             0.00134705546           
       3.317639             0.00802653644             0.00148789513           
       3.320280             0.00560247388             0.00132164776           
       3.322920             0.00675362258             0.00147551273           
       3.325560             0.00675910846             0.00147711472           
       3.328201             0.00756751816             0.00140762864           
       3.330841             0.00587622434             0.00150964012           
       3.333482             0.00486691923             0.00129863952           
       3.336122             0.00413667219             0.00119780657           
       3.338762             0.00322200482             0.00122113716           
       3.341403             0.00674741411             0.00168856939           
       3.344043             0.00386718966             0.00122731631           
       3.346683             0.00443495261             0.00134182021           
       3.349324             0.00565244313             0.00170318318           
       3.351964              0.0045857042             0.00162222591           
       3.354605             0.00828184386             0.00249325126           
       3.357245             0.00486741728             0.00172428708           
       3.359885             0.00432058694             0.00130022117           
       3.362526             0.00666698808             0.00201980261           
       3.365166             0.00766438122             0.00204260068           
       3.367807             0.00711368502             0.00251844947           
       3.370447             0.00735038943             0.00212356092           
       3.373087             0.00346737243             0.00155968556           
       3.375728             0.00984846583             0.00296660911           
       3.378368             0.00387597086             0.00276207957           
       3.381008             0.00544217917             0.00244011609           
       3.383649             0.00348156467              0.0015656539           
       3.386289             0.00985875754             0.00311817269           
       3.388930             0.00497833979             0.00350489211           
       3.391570             0.00732365835             0.00300717645           
       3.394210             0.00593478969             0.00342584341           
       3.396851             0.00242583195             0.00245001642           
       3.399491             0.00723054705             0.00423103198           
       3.402131           -2.64759073e-05                         0           
       3.404772           -2.64886859e-05                         0           
       3.407412                       nan                       nan           
       3.410053           -2.65539277e-05                         0           
       3.412693                       nan                       nan           
       3.415333           -2.66046717e-05                         0           
