################################################################################
# EDF_DataBlockID                     0.Image.Psd
# EDF_BinarySize                      4366944
# EDF_HeaderSize                      2560
# ByteOrder                           LowByteFirst
# DataType                            FloatValue
# Dim_1                               1028
# Dim_2                               1062
# Image                               0
# HeaderID                            EH:000000:000000:000000
# Size                                4366944
# Center_1                            607.5200
# Center_2                            651.5500
# Comment                             Xenocs_Cell_Window - 20251028_20perc_iodine_1.23mg
# DDummy                              0.6
# Date                                2025-10-30T20:42:17
# Delta                               0
# Dummy                               -1.5
# ExposureTime                        360
# Gamma                               0
# Intensity1                          8.51795e-10
# PSize_1                             7.5e-05
# PSize_2                             7.5e-05
# Pressure                            0.0327625
# SampleDistance                      0.450002
# SampleEnvKind                       large
# SampleEnvPN                         ElectroChemical cell
# SampleEnvSN                         1141
# Thickness                           0
# Wavelength                          1.541891e-10
# Wavelength                          1.54189e-10
# aux                                 0
# aux_dial                            0.002375
# beamx                               588.434
# beamx_dial                          588.434
# beamz                               657.808
# beamz_dial                          657.808
# det0x                               0
# det0x_dial                          6.36945
# det0xvd                             0
# det0xvd_dial                        0
# det0y                               450.002
# det0y_dial                          481.635
# det0z                               0
# det0z_dial                          1.23302
# det0zvd                             0
# det0zvd_dial                        0
# mag                                 1.818
# mag_dial                            1.818
# om                                  0.2499
# om_dial                             -0.610199
# phi                                 -0.0120535
# phi_dial                            0
# ry                                  0.599993
# ry_dial                             0.599993
# s1bot                               0.8
# s1bot_dial                          -1.66094
# s1hl                                0.8
# s1hl_dial                           -0.608437
# s1hr                                0.8
# s1hr_dial                           0.970938
# s1top                               0.8
# s1top_dial                          -0.461562
# s2bot                               0.45
# s2bot_dial                          1.36109
# s2hl                                0.45
# s2hl_dial                           -0.83375
# s2hr                                0.45
# s2hr_dial                           -0.118594
# s2top                               0.45
# s2top_dial                          1.44734
# w2theta                             32
# w2theta_dial                        32
# waxsch                              19.2605
# waxsch_dial                         -32.7355
# waxsh                               137.085
# waxsh_dial                          -43.5338
# waxsth                              26.0607
# waxsth_dial                         -19.4086
# waxsz                               67.0407
# waxsz_dial                          -23.7954
# wind                                65.9854
# wind_dial                           66.0041
# wpsi                                124
# wpsi_dial                           124
# wstod                               115
# wstod_dial                          115
# x                                   0
# x_dial                              1.00969
# z                                   0
# z_dial                              13.3172
# CountCutoff                         15302352
# DetectorModel                       Dectris EIGER2 Si 1M, S/N E-02-0362
# ThresholdSetting                    4023.88989258
# Saturation                          0
# FlatField                           Corrected
# BackgroundReductionExtra            0.02
# BackgroundCorrectionConstant        0.0026712
# Detector                            0
# Monitor                             0
# Pil_Roi0                            0
# SumForIntensity1                    3.06646e+08
# TransmittedFlux                     851795
# det                                 0
# mon                                 0
# pilai0                              3.06646e+08
# pilai1                              772014
# pilct0                              5.30449e+08
# pilct1                              772014
# pilroi0                             0
# pilroi1                             0
# sec                                 1
# title                               20251028_20perc_iodine_1.23mg_0_00494.edf
# usaxs0                              0
# Operation                           Azimuthal average I(q)
# Error_model                         ErrorModel.poisson
# Geometrical_correction              True
# Transmission_correction             True
# Thickness_correction                False
# Binning mode                        Uniform
# Binning factor                      1.0
# Psi                                 0.0
# Omega                               0.2499
# MaskInvalidPixels                   True
# DetectorEdge                        3
# MaskFiles                           ['20251028_20perc_iodine_1.23mg_0_00012_mask.edf']
################################################################################
    q(A⁻¹)                Intensity(a.u.)            Sigma_I(a.u.)            
       0.000340                373042.378                  120.8239           
       0.001019                359656.929                72.6496672           
       0.001698                349927.936                50.6714997           
       0.002377                330970.309                44.0772015           
       0.003056                307930.763                35.9320576           
       0.003735                253378.164                28.7453762           
       0.004415                204566.382                25.8285865           
       0.005094                152674.268                 19.324007           
       0.005773                 100677.29                14.5280316           
       0.006452                58532.4295                10.6137427           
       0.007131                32297.2588                7.63768127           
       0.007810                 16289.676                5.38294353           
       0.008490                8205.33518                3.38644718           
       0.009169                4006.05859                2.33854349           
       0.009848                 1237.7073                 1.2567571           
       0.010527                 480.19097               0.782797857           
       0.011206                120.272071               0.373902645           
       0.011885                 54.799641                0.23449472           
       0.012564                 25.145367               0.163081602           
       0.013244                17.2258378               0.126190346           
       0.013923                 12.334827               0.108505598           
       0.014602                9.43956676              0.0880332168           
       0.015281                7.56497914              0.0802238097           
       0.015960                6.20098201              0.0721116741           
       0.016639                5.06214084              0.0615257725           
       0.017319                 4.1714291              0.0549825875           
       0.017998                3.50503584              0.0482170166           
       0.018677                2.99696593              0.0461785355           
       0.019356                2.54280261              0.0420295444           
       0.020035                2.20425247              0.0367132037           
       0.020714                1.89862471              0.0344336781           
       0.021394                1.57876214              0.0297092751           
       0.022073                1.45063976              0.0296293997           
       0.022752                1.24988371              0.0263094272           
       0.023431                1.11359625              0.0241055899           
       0.024110               0.992699339              0.0237284549           
       0.024789               0.900220745              0.0209853057           
       0.025469               0.815297331              0.0205802607           
       0.026148               0.727213554               0.018262439           
       0.026827               0.668936809              0.0177957053           
       0.027506               0.616809323              0.0173346928           
       0.028185               0.552394456              0.0156441385           
       0.028864               0.520950739              0.0151071185           
       0.029544                0.47735339              0.0140232628           
       0.030223               0.454261649              0.0138760372           
       0.030902               0.399282722              0.0131283125           
       0.031581               0.346324853              0.0116228465           
       0.032260               0.351298234              0.0119054623           
       0.032939               0.330432812              0.0111333294           
       0.033619               0.294581681              0.0106665165           
       0.034298               0.276773467              0.0100616023           
       0.034977               0.255767719             0.00948217583           
       0.035656               0.232711891             0.00928408206           
       0.036335               0.212722468             0.00860898568           
       0.037014               0.193942036              0.0082446988           
       0.037693               0.180853668             0.00765899183           
       0.038373               0.190948845              0.0079470802           
       0.039052               0.164556904              0.0074088534           
       0.039731               0.166580115             0.00728054197           
       0.040410                0.15200365             0.00690808375           
       0.041089               0.148803405             0.00672791139           
       0.041768                0.13458569             0.00643185643           
       0.042448               0.136767696             0.00643347475           
       0.043127                0.13128639             0.00615436833           
       0.043806               0.127123388             0.00610116183           
       0.044485               0.120190399             0.00581058593           
       0.045164               0.103063611             0.00548673531           
       0.045843               0.100734833             0.00520265098           
       0.046523               0.109786609             0.00545012722           
       0.047202               0.108517531             0.00545639915           
       0.047881               0.097299192             0.00506703532           
       0.048560              0.0929537131             0.00499773522           
       0.049239              0.0916159236             0.00476407093           
       0.049918              0.0886427029             0.00477773779           
       0.050598              0.0904417168              0.0047535717           
       0.051277              0.0781318934             0.00440422538           
       0.051956              0.0746825836             0.00427887121           
       0.052635              0.0830621738             0.00441677583           
       0.053314              0.0810328447             0.00449003423           
       0.053993              0.0774032042             0.00426796367           
       0.054673              0.0784496933             0.00420100653           
       0.055352              0.0721562661             0.00408815649           
       0.056031              0.0725187752             0.00401229954           
       0.056710              0.0709866532             0.00406696584           
       0.057389              0.0697032164             0.00388620514           
       0.058068              0.0689678765              0.0039055003           
       0.058748              0.0671176026              0.0039008154           
       0.059427              0.0621169546             0.00368914992           
       0.060106              0.0598382628             0.00365512157           
       0.060785              0.0656492528             0.00371377703           
       0.061464              0.0635604365             0.00374229746           
       0.062143              0.0601515483             0.00360357911           
       0.062822              0.0496327671             0.00323495626           
       0.063502              0.0580223242              0.0034914443           
       0.064181              0.0554859548             0.00337822562           
       0.064860              0.0510752935               0.003290542           
       0.065539              0.0496532304             0.00321268485           
       0.066218              0.0483251916              0.0031015668           
       0.066897               0.049412487             0.00316047554           
       0.067577               0.050959292             0.00324039693           
       0.068256               0.044346059             0.00309708666           
       0.068935              0.0468809776             0.00313288519           
       0.069614              0.0471782101             0.00317408695           
       0.070293               0.045512282             0.00314628977           
       0.070972              0.0480347487             0.00320863734           
       0.071652              0.0396224304             0.00291950545           
       0.072331              0.0467010715             0.00311309376           
       0.073010              0.0395111539             0.00292887046           
       0.073689              0.0416904167             0.00299202581           
       0.074368              0.0406551204              0.0029492683           
       0.075047              0.0426089863             0.00298685404           
       0.075727              0.0364463261             0.00274536171           
       0.076406              0.0424294927             0.00302124875           
       0.077085              0.0416057433             0.00293586466           
       0.077764              0.0379194292             0.00279296718           
       0.078443              0.0384063283             0.00282824432           
       0.079122              0.0349263352             0.00267115907           
       0.079802              0.0363043618             0.00275222838           
       0.080481              0.0347208303              0.0026007452           
       0.081160              0.0363877126              0.0027170753           
       0.081839              0.0328317308             0.00253958088           
       0.082518              0.0352473195             0.00263356362           
       0.083197              0.0333376204             0.00252143096           
       0.083876              0.0339802177             0.00250331648           
       0.084556              0.0308025023             0.00244967794           
       0.085235              0.0318802798             0.00244401683           
       0.085914              0.0281314219             0.00231812821           
       0.086593              0.0322902345             0.00246759015           
       0.087272              0.0357194231             0.00255862701           
       0.087951              0.0309161716             0.00243415776           
       0.088631               0.030041228             0.00231773953           
       0.089310              0.0273988672              0.0022604083           
       0.089989              0.0316355899             0.00240049814           
       0.090668               0.032210467             0.00244894754           
       0.091347              0.0269346753             0.00225196485           
       0.092026              0.0294386163             0.00225034364           
       0.092706              0.0244194607             0.00212394114           
       0.093385              0.0268767995             0.00219402879           
       0.094064              0.0319472946             0.00241989191           
       0.094743              0.0280905992             0.00223455072           
       0.095422              0.0295369688             0.00226580545           
       0.096101              0.0248324656             0.00212032843           
       0.096781              0.0278321464             0.00221260165           
       0.097460              0.0266573251             0.00210633103           
       0.098139              0.0258031472             0.00205636435           
       0.098818              0.0289806131             0.00215246469           
       0.099497              0.0329826898             0.00230099696           
       0.100176              0.0292711771             0.00211077847           
       0.100856              0.0271175506             0.00203034298           
       0.101535              0.0268624767             0.00201687413           
       0.102214              0.0276298837             0.00204549296           
       0.102893              0.0257563226             0.00195242212           
       0.103572              0.0210483532             0.00173891044           
       0.104251              0.0230127871             0.00182496353           
       0.104931              0.0221433869              0.0017738613           
       0.105610              0.0257966285             0.00192277173           
       0.106289              0.0288503146             0.00199955502           
       0.106968              0.0238791781             0.00182454571           
       0.107647              0.0276606684             0.00196488427           
       0.108326              0.0267700729             0.00190713427           
       0.109005              0.0225805863             0.00174053599           
       0.109685              0.0242758687             0.00178444757           
       0.110364              0.0201916553             0.00164591443           
       0.111043              0.0283384939             0.00194215685           
       0.111722              0.0268397699             0.00186700006           
       0.112401              0.0228925279             0.00172905115           
       0.113080              0.0258962861             0.00181791751           
       0.113760              0.0258744648             0.00184750278           
       0.114439              0.0199041054             0.00159726859           
       0.115118               0.023501453             0.00172253034           
       0.115797              0.0259800594             0.00182786626           
       0.116476              0.0218445677             0.00165099902           
       0.117155              0.0217387525             0.00166027909           
       0.117835              0.0255740158             0.00176499149           
       0.118514              0.0208770686             0.00161491593           
       0.119193              0.0226412101             0.00168177583           
       0.119872               0.022274499             0.00164723885           
       0.120551               0.020087028             0.00155384572           
       0.121230              0.0208447854             0.00156695378           
       0.121910              0.0210340417             0.00158926391           
       0.122589              0.0211788912                0.00159637           
       0.123268              0.0222115075             0.00160315184           
       0.123947              0.0202680539             0.00154131485           
       0.124626              0.0228571992             0.00161679168           
       0.125305              0.0226573256              0.0016176065           
       0.125985              0.0216060333             0.00156737545           
       0.126664              0.0209564444             0.00152893023           
       0.127343              0.0214714108             0.00156554028           
       0.128022               0.023583511              0.0016281496           
       0.128701              0.0223554959             0.00157693572           
       0.129380              0.0194880094             0.00145389116           
       0.130059              0.0211328694             0.00151752133           
       0.130739              0.0205322946              0.0015063216           
       0.131418              0.0222838671             0.00156486407           
       0.132097              0.0221399941             0.00153980003           
       0.132776              0.0199215253              0.0014540245           
       0.133455              0.0228286714             0.00156859856           
       0.134134              0.0219455738             0.00153306199           
       0.134814              0.0188637299             0.00140670156           
       0.135493              0.0217390585             0.00151622123           
       0.136172              0.0191305515             0.00141161085           
       0.136851              0.0190831185             0.00141805936           
       0.137530               0.020939818               0.001450152           
       0.138209              0.0194245839             0.00141309734           
       0.138889              0.0194919844              0.0014217866           
       0.139568              0.0193225045             0.00141498019           
       0.140247              0.0171333111             0.00133066823           
       0.140926              0.0166256748              0.0012733273           
       0.141605              0.0195433309             0.00141561595           
       0.142284              0.0175126343             0.00131784715           
       0.142964              0.0193328385             0.00138993672           
       0.143643              0.0203022444             0.00142255894           
       0.144322              0.0192587342             0.00135652544           
       0.145001              0.0197466434             0.00140179612           
       0.145680               0.018855873              0.0013374061           
       0.146359              0.0209573641             0.00141512253           
       0.147039              0.0208361556             0.00142264115           
       0.147718              0.0185559361             0.00132038877           
       0.148397              0.0179608514             0.00131923026           
       0.149076              0.0176845556             0.00126843519           
       0.149755              0.0178580046              0.0012943216           
       0.150434              0.0185303748             0.00131900079           
       0.151114              0.0197154655             0.00135299964           
       0.151793              0.0175000718             0.00127472969           
       0.152472              0.0190964748             0.00130808147           
       0.153151              0.0189524462             0.00131573783           
       0.153830              0.0166040927             0.00122255535           
       0.154509              0.0198482499             0.00133108646           
       0.155188              0.0195639216             0.00132102964           
       0.155868              0.0170853678              0.0012257312           
       0.156547              0.0191851439             0.00130721309           
       0.157226              0.0173784562             0.00121375304           
       0.157905              0.0169997807             0.00121053973           
       0.158584              0.0176322449             0.00123061294           
       0.159263              0.0179140141              0.0012449708           
       0.159943              0.0172714925             0.00122335198           
       0.160622              0.0166638354             0.00117844898           
       0.161301              0.0167106083             0.00119588586           
       0.161980               0.016632386              0.0011728004           
       0.162659              0.0165805313              0.0011839496           
       0.163338              0.0183659491             0.00123590878           
       0.164018              0.0179421358             0.00121515415           
       0.164697              0.0168897621              0.0011941175           
       0.165376              0.0203270308             0.00128138098           
       0.166055              0.0187226675             0.00123788399           
       0.166734              0.0187429918             0.00123300754           
       0.167413               0.017502202              0.0011923303           
       0.168093              0.0179539892             0.00121904444           
       0.168772              0.0180041031             0.00118504402           
       0.169451              0.0190839221             0.00124251096           
       0.170130              0.0173256779             0.00116834811           
       0.170809              0.0181379173             0.00120968705           
       0.171488               0.017664009             0.00118289647           
       0.172168              0.0173608986             0.00116143758           
       0.172847               0.018805673             0.00122467809           
       0.173526              0.0158641511             0.00110336967           
       0.174205               0.016385777             0.00112652726           
       0.174884              0.0171637643             0.00114695223           
       0.175563              0.0154340563             0.00109226854           
       0.176243              0.0185904301             0.00121076202           
       0.176922              0.0155332708             0.00107789821           
       0.177601              0.0171900471              0.0011463879           
       0.178280              0.0166382149             0.00111524755           
       0.178959               0.017295603             0.00114621203           
       0.179638              0.0162031329             0.00110622678           
       0.180317              0.0178410431              0.0011523367           
       0.180997               0.017750214             0.00115563837           
       0.181676              0.0161237391              0.0010896595           
       0.182355              0.0180926147             0.00116120562           
       0.183034              0.0188614779              0.0011665939           
       0.183713              0.0184580057             0.00116810349           
       0.184392              0.0171768538             0.00112649521           
       0.185072              0.0156337826             0.00106245774           
       0.185751              0.0179936451             0.00114299865           
       0.186430              0.0146332624             0.00102353853           
       0.187109              0.0174412648             0.00112988048           
       0.187788              0.0166254656             0.00110041982           
       0.188467              0.0173010977             0.00110927233           
       0.189147              0.0152221729             0.00105103123           
       0.189826              0.0173249397             0.00110144928           
       0.190505              0.0158675088             0.00107145488           
       0.191184              0.0160646882             0.00106255383           
       0.191863              0.0178809129               0.001123372           
       0.192542              0.0165761462             0.00109180945           
       0.193222              0.0158937152             0.00104513995           
       0.193901              0.0144348549             0.00100936998           
       0.194580              0.0163819069             0.00105648242           
       0.195259              0.0159017904             0.00105284013           
       0.195938              0.0150898996             0.00102805921           
       0.196617               0.014319051            0.000987477509           
       0.197297              0.0168729136             0.00107630364           
       0.197976              0.0164461195             0.00104628208           
       0.198655              0.0162124997             0.00105017108           
       0.199334              0.0144312532            0.000982064893           
       0.200013              0.0155531566             0.00101895866           
       0.200692              0.0146290749            0.000994168901           
       0.201371              0.0165791157             0.00104643817           
       0.202051              0.0169506462             0.00106138873           
       0.202730               0.014376551            0.000967718863           
       0.203409              0.0175586409             0.00107664593           
       0.204088              0.0172733875             0.00106668351           
       0.204767              0.0168125064             0.00104682585           
       0.205446              0.0161482461             0.00102794224           
       0.206126               0.017697459              0.0010615016           
       0.206805              0.0165819413             0.00104633916           
       0.207484              0.0150985058            0.000980490047           
       0.208163              0.0133331403            0.000926924442           
       0.208842              0.0166691374             0.00103360884           
       0.209521              0.0145515316            0.000957700377           
       0.210201              0.0157458897             0.00100734551           
       0.210880              0.0144283851            0.000945359101           
       0.211559              0.0162789186             0.00101900142           
       0.212238              0.0129477368            0.000904156044           
       0.212917              0.0154858999            0.000985140308           
       0.213596              0.0155887976            0.000994252153           
       0.214276              0.0143883861            0.000935304036           
       0.214955              0.0141330464            0.000946461306           
       0.215634               0.014297058            0.000945114752           
       0.216313              0.0148008291            0.000959602372           
       0.216992              0.0138526005            0.000928122218           
       0.217671              0.0137868275            0.000919644459           
       0.218351              0.0155549642            0.000986391052           
       0.219030              0.0145610913            0.000939294281           
       0.219709              0.0151284989            0.000963392462           
       0.220388              0.0144290218            0.000939648628           
       0.221067              0.0146246166             0.00094674596           
       0.221746              0.0152734239            0.000966527751           
       0.222426              0.0140353695            0.000912680093           
       0.223105              0.0154647539            0.000971079591           
       0.223784               0.016406617            0.000990292499           
       0.224463              0.0144925372            0.000938147347           
       0.225142              0.0154532284            0.000953414797           
       0.225821              0.0144447709            0.000925493659           
       0.226500              0.0150497094             0.00095068104           
       0.227180              0.0135258534            0.000887381113           
       0.227859              0.0161123844            0.000972863042           
       0.228538              0.0167847232            0.000982982732           
       0.229217              0.0144090631            0.000917974882           
       0.229896              0.0146341552            0.000924671821           
       0.230575              0.0146749805            0.000911200273           
       0.231255              0.0151332818            0.000939172975           
       0.231934              0.0152572403            0.000936568949           
       0.232613                0.01403906            0.000901716712           
       0.233292              0.0148999363            0.000919976684           
       0.233971              0.0165790073            0.000969976367           
       0.234650               0.014494788            0.000917627379           
       0.235330              0.0155483164            0.000942091444           
       0.236009              0.0145006395            0.000907836858           
       0.236688                0.01378434              0.0008819627           
       0.237367                0.01619903            0.000957485162           
       0.238046              0.0164626088            0.000972041191           
       0.238725              0.0146951564            0.000904211458           
       0.239405              0.0133531541            0.000867280463           
       0.240084              0.0154339695             0.00092647177           
       0.240763              0.0132203733            0.000865673147           
       0.241442              0.0154851916            0.000923692565           
       0.242121              0.0152140416            0.000917298024           
       0.242800              0.0141447201            0.000888661824           
       0.243480              0.0152681529            0.000918955177           
       0.244159              0.0129679921            0.000847320155           
       0.244838              0.0152037117            0.000902361112           
       0.245517              0.0136684799             0.00086789724           
       0.246196              0.0139457512              0.0008770786           
       0.246875              0.0142622718            0.000874611824           
       0.247554              0.0141542143            0.000880147431           
       0.248234              0.0150748147            0.000894546326           
       0.248913              0.0129693515            0.000839035595           
       0.249592              0.0126693638            0.000821395064           
       0.250271              0.0143406597            0.000871357455           
       0.250950              0.0166041441            0.000943347938           
       0.251629              0.0121553722            0.000800277804           
       0.252309               0.014237589            0.000867871453           
       0.252988              0.0132210029            0.000821908142           
       0.253667               0.012899576            0.000821341215           
       0.254346              0.0131676803            0.000829661915           
       0.255025              0.0140351197            0.000854677344           
       0.255704              0.0119967735            0.000786561502           
       0.256384                0.01487414            0.000872793148           
       0.257063              0.0135000871            0.000836243505           
       0.257742              0.0136217698            0.000834183545           
       0.258421              0.0137899849            0.000837702829           
       0.259100              0.0152362608            0.000882071862           
       0.259779              0.0131232278            0.000817931244           
       0.260459              0.0126719638            0.000805323643           
       0.261138              0.0142330125            0.000836807849           
       0.261817              0.0137919955            0.000840369297           
       0.262496              0.0128261862            0.000802463319           
       0.263175              0.0131315992              0.0008137051           
       0.263854              0.0117162352            0.000765032474           
       0.264534              0.0132762202            0.000807417033           
       0.265213              0.0136960637            0.000833008005           
       0.265892              0.0143427522            0.000841525943           
       0.266571               0.012453015            0.000782347627           
       0.267250              0.0123408487            0.000780128268           
       0.267929              0.0124571077            0.000782990629           
       0.268609              0.0145933109            0.000852111205           
       0.269288              0.0137320542            0.000812852827           
       0.269967              0.0128562083            0.000794977428           
       0.270646              0.0119011012            0.000761571149           
       0.271325              0.0125796542            0.000784288782           
       0.272004              0.0132779924            0.000797731857           
       0.272683              0.0127888394            0.000783867358           
       0.273363              0.0123441348            0.000775029841           
       0.274042              0.0117533615            0.000751794661           
       0.274721              0.0110877761            0.000729764704           
       0.275400              0.0112605611            0.000730559527           
       0.276079              0.0124519158            0.000772596484           
       0.276758              0.0124760965            0.000783105606           
       0.277438              0.0105755668            0.000712902596           
       0.278117              0.0109621365            0.000739013032           
       0.278796              0.0103065442            0.000709300508           
       0.279475              0.0119159692            0.000775272035           
       0.280154              0.0118657897             0.00076250971           
       0.280833              0.0107691135            0.000730836292           
       0.281513               0.011697522            0.000773637776           
       0.282192              0.0116136324             0.00075770758           
       0.282871              0.0111472206            0.000747523923           
       0.283550               0.011206316            0.000753519305           
       0.284229              0.0106762732            0.000746285582           
       0.284908              0.0126030772            0.000819389388           
       0.285588              0.0109858575            0.000756054993           
       0.286267              0.0114755158            0.000785093249           
       0.286946              0.0107890109            0.000756297184           
       0.287625              0.0110652044             0.00077895747           
       0.288304              0.0114583824            0.000782066319           
       0.288983              0.0123338605            0.000821668542           
       0.289663              0.0107729234            0.000772410876           
       0.290342             0.00996291136            0.000738850784           
       0.291021              0.0102046703             0.00075179004           
       0.291700              0.0114424508            0.000785680151           
       0.292379              0.0115894263            0.000808814123           
       0.293058              0.0100857714            0.000751672635           
       0.293738                0.00930641            0.000715983347           
       0.294417              0.0117342106              0.0008133127           
       0.295096              0.0106935581            0.000767875766           
       0.295775             0.00989189251            0.000749811206           
       0.296454             0.00981163533             0.00073710429           
       0.297133              0.0113347569            0.000796001973           
       0.297812              0.0101871946            0.000758417068           
       0.298492              0.0106137136            0.000775626732           
       0.299171             0.00932884613            0.000725789414           
       0.299850              0.0101441248            0.000751671636           
       0.300529             0.00906224197            0.000718461415           
       0.301208              0.0100877166            0.000759866982           
       0.301887              0.0115436944             0.00081188994           
       0.302567             0.00943154715             0.00073018962           
       0.303246             0.00871857995            0.000706631952           
       0.303925             0.00852820898            0.000707848071           
       0.304604              0.0104084308            0.000765109116           
       0.305283             0.00830163569               0.000693436           
       0.305962             0.00808754598            0.000680301353           
       0.306642             0.00901527984             0.00072801649           
       0.307321             0.00947289165            0.000743881724           
       0.308000              0.0116979548            0.000816843808           
       0.308679             0.00961612754            0.000756638926           
       0.309358             0.00957173403            0.000744678886           
       0.310037              0.0106746107            0.000788163482           
       0.310717             0.00907460578            0.000725999177           
       0.311396             0.00967685587            0.000754731221           
       0.312075             0.00740398921            0.000668545236           
       0.312754             0.00858929122            0.000705667626           
       0.313433             0.00952260874            0.000749480369           
       0.314112             0.00934836023            0.000742421107           
       0.314792             0.00941672873            0.000750392888           
       0.315471             0.00801707664            0.000683821045           
       0.316150               0.010160613            0.000776953925           
       0.316829             0.00837957828            0.000710239555           
       0.317508             0.00762230619             0.00066978607           
       0.318187             0.00783099705            0.000687848889           
       0.318866             0.00771113717            0.000673369657           
       0.319546             0.00911945036            0.000743259214           
       0.320225             0.00898521823            0.000737783222           
       0.320904              0.0086591675            0.000713074623           
       0.321583             0.00912515932            0.000748139831           
       0.322262             0.00805665164            0.000692320687           
       0.322941             0.00834928979            0.000713811388           
       0.323621             0.00834834209            0.000709414902           
       0.324300             0.00787665971            0.000689622601           
       0.324979             0.00771286876            0.000683648492           
       0.325658             0.00914917748            0.000745938605           
       0.326337             0.00795804546            0.000696597268           
       0.327016             0.00773720959            0.000682503329           
       0.327696             0.00903625725            0.000745779334           
       0.328375             0.00885705664            0.000732116972           
       0.329054              0.0075575126             0.00067994585           
       0.329733             0.00848324588            0.000723017908           
       0.330412             0.00724882769            0.000662870731           
       0.331091             0.00689883217            0.000658400291           
       0.331771             0.00735085288            0.000661819254           
       0.332450              0.0064732092            0.000633113337           
       0.333129             0.00712701532             0.00066260299           
       0.333808             0.00688824746            0.000652270211           
       0.334487             0.00765807412            0.000691014594           
       0.335166             0.00639596185            0.000622267864           
       0.335846             0.00662989582            0.000644678894           
       0.336525             0.00710943735            0.000660995641           
       0.337204             0.00766335322            0.000688061842           
       0.337883             0.00629527246            0.000624454231           
       0.338562             0.00618475661            0.000622383447           
       0.339241             0.00595742933            0.000611982798           
       0.339921             0.00532443687            0.000568855249           
       0.340600              0.0069994944            0.000664612319           
       0.341279             0.00646346551            0.000631818195           
       0.341958             0.00721939946            0.000677164643           
       0.342637             0.00590552937            0.000603801317           
       0.343316             0.00669534734            0.000644772882           
       0.343995             0.00736237607            0.000687199476           
       0.344675             0.00740838581            0.000676674827           
       0.345354             0.00723727021            0.000673226061           
       0.346033             0.00608618797            0.000615761624           
       0.346712             0.00730956909            0.000679122583           
       0.347391             0.00662760172            0.000650670707           
       0.348070             0.00656664819            0.000638473822           
       0.348750             0.00689508806              0.0006636996           
       0.349429             0.00659569936            0.000640750433           
       0.350108             0.00592396724            0.000614553472           
       0.350787             0.00651878732            0.000633716771           
       0.351466             0.00574568717            0.000605912921           
       0.352145             0.00660511716            0.000650189165           
       0.352825             0.00550568425            0.000590926541           
       0.353504             0.00620336223            0.000627097251           
       0.354183             0.00660916191            0.000639826056           
       0.354862             0.00506078883            0.000572893919           
       0.355541             0.00460285651            0.000539204518           
       0.356220              0.0051310944            0.000570380108           
       0.356900             0.00748906844            0.000695630979           
       0.357579             0.00515849612            0.000570254046           
       0.358258             0.00447218186            0.000538313578           
       0.358937             0.00484884206            0.000549986462           
       0.359616             0.00538085493            0.000587464037           
       0.360295             0.00622083955            0.000632181511           
       0.360975             0.00526791936            0.000579262605           
       0.361654             0.00558979888            0.000599773505           
       0.362333             0.00509444879             0.00056967068           
       0.363012             0.00561324916            0.000605667896           
       0.363691             0.00602146521            0.000614928468           
       0.364370             0.00514245948            0.000575325288           
       0.365050             0.00585205568            0.000610452794           
       0.365729             0.00596505176            0.000622194773           
       0.366408             0.00430587827            0.000529798441           
       0.367087             0.00492117324            0.000557303939           
       0.367766              0.0045439878             0.00054667887           
       0.368445             0.00556650245            0.000594326271           
       0.369124             0.00405458225            0.000511216829           
       0.369804             0.00540482267            0.000589287645           
       0.370483             0.00499814663            0.000569163675           
       0.371162             0.00479127543            0.000560491309           
       0.371841             0.00384804464            0.000493542342           
       0.372520             0.00528628962            0.000590063856           
       0.373199             0.00462050155            0.000545064851           
       0.373879             0.00420813651             0.00052619636           
       0.374558             0.00472136716            0.000549228103           
       0.375237             0.00429395298             0.00052463692           
       0.375916             0.00513599251            0.000584768061           
       0.376595             0.00427544576             0.00052310639           
       0.377274             0.00390447854            0.000507899199           
       0.377954             0.00440813144            0.000531186199           
       0.378633             0.00466576392            0.000553394448           
       0.379312             0.00479333471            0.000560767252           
       0.379991             0.00526135848            0.000584465729           
       0.380670             0.00498650516            0.000579051558           
       0.381349             0.00524440405            0.000585310377           
       0.382029             0.00438752991            0.000543033625           
       0.382708             0.00386176676            0.000498334285           
       0.383387              0.0044515429             0.00054716117           
       0.384066             0.00408874449             0.00051957919           
       0.384745             0.00427663677            0.000533472263           
       0.385424             0.00410049236            0.000524144717           
       0.386104             0.00374683198            0.000495494926           
       0.386783             0.00508719888            0.000589847912           
       0.387462             0.00429889754            0.000528735755           
       0.388141             0.00422380811            0.000532468388           
       0.388820             0.00390327012            0.000508165598           
       0.389499             0.00443016308            0.000544425961           
       0.390178             0.00487907611             0.00057361934           
       0.390858             0.00452431293            0.000547901938           
       0.391537             0.00414766224            0.000529956754           
       0.392216             0.00450031461            0.000545107613           
       0.392895             0.00379087432            0.000501985453           
       0.393574             0.00444106553            0.000541984892           
       0.394253             0.00394660248            0.000513221303           
       0.394933             0.00357427546            0.000493993956           
       0.395612             0.00411697914            0.000514772066           
       0.396291             0.00343014341            0.000479440418           
       0.396970             0.00368427559            0.000492481134           
       0.397649             0.00431713223             0.00053474446           
       0.398328             0.00389105216            0.000505439273           
       0.399008             0.00385062441            0.000501713938           
       0.399687             0.00448556634            0.000543606835           
       0.400366             0.00399329223            0.000510948986           
       0.401045             0.00462003393            0.000548545524           
       0.401724             0.00406042348            0.000515110113           
       0.402403             0.00412207624            0.000523051221           
       0.403083             0.00535027473            0.000587308513           
       0.403762             0.00305905764               0.000446281           
       0.404441             0.00363283351            0.000489434498           
       0.405120             0.00400163569            0.000511993093           
       0.405799             0.00357337726            0.000481719186           
       0.406478             0.00356795514            0.000481365665           
       0.407158             0.00381577602            0.000496867989           
       0.407837              0.0038082925            0.000500761762           
       0.408516             0.00406926677            0.000513132414           
       0.409195              0.0034243802            0.000476059501           
       0.409874             0.00408008399             0.00052687257           
       0.410553             0.00383866604            0.000516543768           
       0.411233             0.00194758264              0.0003660233           
       0.411912             0.00328157034            0.000481850187           
       0.412591             0.00295966295            0.000460635194           
       0.413270             0.00393544957            0.000528646066           
       0.413949             0.00314097436            0.000477438779           
       0.414628             0.00292987224            0.000460287716           
       0.415307             0.00381354831            0.000530974767           
       0.415987             0.00381776347            0.000526890188           
       0.416666              0.0035585372            0.000505627288           
       0.417345             0.00376334054            0.000528657032           
       0.418024             0.00375271422            0.000527923583           
       0.418703             0.00322339699            0.000488378608           
       0.419382             0.00224553823            0.000405626688           
       0.420062             0.00424911833            0.000559539568           
       0.420741             0.00294317379              0.0004681584           
       0.421420               0.003872053            0.000539013273           
       0.422099             0.00199702116            0.000387107365           
       0.422778             0.00301459089            0.000478189225           
       0.423457             0.00259325545            0.000446229575           
       0.424137              0.0026371799            0.000442659429           
       0.424816             0.00299535386            0.000481622539           
       0.425495             0.00268844709            0.000455850504           
       0.426174             0.00314282909            0.000493042226           
       0.426853             0.00234513971            0.000423313416           
       0.427532             0.00301745971            0.000484233478           
       0.428212             0.00274805497            0.000465161995           
       0.428891             0.00242278666            0.000435772857           
       0.429570             0.00273519429             0.00046333331           
       0.430249             0.00316775538            0.000496037536           
       0.430928             0.00251894994            0.000452004773           
       0.431607              0.0017154638            0.000366603804           
       0.432287             0.00245502827            0.000441777518           
       0.432966             0.00218559207            0.000420497363           
       0.433645             0.00194363911            0.000396953676           
       0.434324             0.00176005729            0.000375465122           
       0.435003             0.00297766803            0.000489198889           
       0.435682             0.00155571469            0.000356500125           
       0.436361             0.00260911342            0.000461062244           
       0.437041             0.00227403156            0.000429864278           
       0.437720             0.00197342101            0.000402376607           
       0.438399             0.00157809753            0.000361701369           
       0.439078             0.00193891146            0.000412550187           
       0.439757             0.00251831389            0.000467271188           
       0.440436             0.00229617531            0.000456242195           
       0.441116             0.00311687283            0.000540252275           
       0.441795             0.00305211466            0.000535254598           
       0.442474             0.00278241488            0.000512483921           
       0.443153             0.00126302968            0.000353339038           
       0.443832              0.0022568907            0.000473120241           
       0.444511             0.00125073647            0.000350620979           
       0.445191              0.0028729974            0.000544326676           
       0.445870             0.00205249031            0.000460091722           
       0.446549             0.00178011904            0.000432996195           
       0.447228             0.00350930849            0.000604518149           
       0.447907             0.00126742752            0.000367654908           
       0.448586             0.00257554061            0.000536708974           
       0.449266             0.00175793427            0.000439331908           
       0.449945             0.00196134599            0.000462161219           
       0.450624             0.00308304108            0.000588638443           
       0.451303               0.001850548            0.000461958134           
       0.451982             0.00253164707            0.000536983478           
       0.452661             0.00144059733            0.000412617026           
       0.453341             0.00264075673            0.000560608057           
       0.454020             0.00290702774            0.000589089176           
       0.454699             0.00246441257            0.000547345654           
       0.455378             0.00150529351            0.000428004724           
       0.456057             0.00156172187             0.00044370636           
       0.456736             0.00204950476            0.000506712808           
       0.457416              0.0023109777            0.000538080961           
       0.458095             0.00213540058            0.000524722279           
       0.458774             0.00126794385            0.000409677171           
       0.459453             0.00194389252            0.000509815144           
       0.460132             0.00186039941             0.00048797536           
       0.460811             0.00132724708            0.000427542291           
       0.461490             0.00250863382            0.000581811412           
       0.462170             0.00120999895             0.00041037519           
       0.462849             0.00192348808            0.000520764114           
       0.463528             0.00135782569            0.000436525919           
       0.464207             0.00185298798             0.00051948782           
       0.464886              0.0016797351            0.000490754776           
       0.465565             0.00203389626            0.000545950542           
       0.466245             0.00127881824            0.000434249063           
       0.466924             0.00169018169            0.000511023327           
       0.467603             0.00100208045            0.000385136318           
       0.468282             0.00137812746            0.000462366266           
       0.468961            0.000440610331            0.000263155505           
       0.469640             0.00219813129             0.00059012095           
       0.470320            0.000778405827            0.000351412597           
       0.470999             0.00161063196            0.000510257603           
       0.471678             0.00132568619            0.000467375803           
       0.472357              0.0021461383            0.000596328339           
       0.473036             0.00134495277            0.000475053814           
       0.473715               0.001693461            0.000537231034           
       0.474395             0.00174508858            0.000552897262           
       0.475074            0.000728608335            0.000357269069           
       0.475753             0.00138912498            0.000489052334           
       0.476432             0.00113001418            0.000457147684           
       0.477111            0.000934927695            0.000410789863           
       0.477790             0.00131093157            0.000489029395           
       0.478470             0.00136822886            0.000506209085           
       0.479149            0.000241949085            0.000215070825           
       0.479828            0.000989608891            0.000433938051           
       0.480507            0.000639434329            0.000351626232           
       0.481186           -0.000320250857                         0           
       0.481865            6.85214968e-05            0.000116242904           
       0.482545            0.000893630519            0.000424720917           
       0.483224            0.000277696088            0.000238378447           
       0.483903           -0.000320327404                         0           
       0.484582            0.000968782006            0.000459608792           
       0.485261            0.000709162855            0.000383268696           
       0.485940            0.000572356222            0.000358211152           
       0.486619           -0.000320403956                         0           
       0.487299            0.000795189514            0.000424234715           
       0.487978             -9.768269e-05                         0           
       0.488657            0.000407674174            0.000313069987           
       0.489336            0.000591528923            0.000370502266           
       0.490015           -8.78983556e-05                         0           
       0.490694            0.000166262721            0.000203445703           
       0.491374            0.000403678964            0.000313142686           
       0.492053           -6.60850503e-05                         0           
       0.492732           -6.72008803e-05                         0           
       0.493411            -0.00032059822                         0           
       0.494090           -6.06141464e-05                         0           
       0.494769             0.00048337462            0.000360685224           
       0.495449           -0.000320657026                         0           
       0.496128            -5.0266743e-05                         0           
       0.496807           -0.000320696244                         0           
       0.497486           -0.000320715925                         0           
       0.498165            0.000251520552            0.000267516813           
       0.498844           -2.96916235e-05                         0           
       0.499524           -0.000320775307                         0           
       0.500203           -0.000320795377                         0           
       0.500882            -0.00032081505                         0           
       0.501561           -0.000320834787                         0           
       0.502240           -2.52937092e-05                         0           
       0.502919           -0.000320874696                         0           
       0.503599           -0.000320894687                         0           
       0.504278           -0.000320914959                         0           
       0.504957           -0.000320934992                         0           
       0.505636              0.0003330567            0.000329764553           
       0.506315           -0.000320975129                         0           
       0.506994              -0.000320995                         0           
       0.507673           -0.000321014831                         0           
       0.508353           -0.000321035079                         0           
       0.509032           -0.000321055242                         0           
       0.509711           -0.000321075412                         0           
       0.510390            1.83733313e-05             8.1562228e-05           
       0.511069            3.63337929e-05            0.000115047286           
       0.511748           -0.000321136655                         0           
       0.512428            0.000450938488            0.000415527152           
       0.513107            5.76834604e-05             0.00014838486           
       0.513786            8.36599008e-05             0.00018373142           
       0.514465            -0.00032121811                         0           
       0.515144            9.64291832e-05            0.000201364046           
       0.515823            0.000470406762            0.000434260795           
       0.516503            -0.00032127961                         0           
       0.517182            0.000104947974            0.000211201054           
       0.517861           -0.000321320686                         0           
       0.518540           -0.000321341315                         0           
       0.519219            0.000555388974            0.000492919742           
       0.519898           -0.000321382541                         0           
       0.520578            0.000121907718             0.00023351322           
       0.521257           -0.000321423955                         0           
       0.521936           -0.000321444576                         0           
       0.522615           -0.000321465445                         0           
       0.523294           -0.000321486391                         0           
       0.523973            0.000657518984            0.000567190088           
       0.524653           -0.000321527554                         0           
       0.525332           -0.000321548361                         0           
       0.526011           -0.000321569541                         0           
       0.526690           -0.000321590681                         0           
       0.527369           -0.000321611646                         0           
       0.528048           -0.000321632761                         0           
       0.528728            0.000721442542            0.000618627344           
       0.529407           -0.000321674842                         0           
       0.530086           -0.000321695726                         0           
       0.530765            -0.00032171664                         0           
       0.531444           -0.000321737779                         0           
       0.532123           -0.000321759291                         0           
       0.532802           -0.000321780629                         0           
       0.533482            0.000271198749            0.000398245905           
       0.534161           -0.000321823192                         0           
       0.534840           -0.000321844309                         0           
       0.535519           -0.000321865816                         0           
       0.536198           -0.000321887101                         0           
       0.536877           -0.000321908092                         0           
       0.537557           -0.000321929445                         0           
       0.538236            -0.00032195099                         0           
       0.538915           -0.000321972527                         0           
       0.539594           -0.000321994035                         0           
       0.540273           -0.000322015879                         0           
       0.540952            -0.00032203748                         0           
       0.541632           -0.000322058686                         0           
       0.542311           -0.000322080086                         0           
       0.542990           -0.000322101727                         0           
       0.543669           -0.000322123547                         0           
       0.544348            0.000423332531            0.000561378833           
       0.545027           -0.000322167091                         0           
       0.545707           -0.000322188905                         0           
       0.546386            -0.00032221078                         0           
       0.547065           -0.000322232392                         0           
       0.547744           -0.000322254103                         0           
       0.548423           -0.000322276053                         0           
       0.549102           -0.000322298026                         0           
       0.549782           -0.000322319887                         0           
       0.550461           -0.000322342008                         0           
       0.551140           -0.000322364263                         0           
       0.551819           -0.000322386254                         0           
       0.552498           -0.000322408434                         0           
       0.553177           -0.000322430232                         0           
       0.553856           -0.000322452109                         0           
       0.554536           -0.000322474058                         0           
       0.555215           -0.000322496341                         0           
       0.555894           -0.000322518572                         0           
       0.556573           -0.000322540935                         0           
       0.557252           -0.000322563279                         0           
       0.557931           -0.000322585522                         0           
       0.558611           -0.000322608286                         0           
       0.559290            -0.00032263047                         0           
       0.559969           -0.000322652108                         0           
       0.560648           -0.000322674321                         0           
       0.561327           -0.000322697028                         0           
       0.562006             0.00156978074             0.00122201664           
       0.562686           -0.000322742244                         0           
       0.563365           -0.000322764942                         0           
       0.564044           -0.000322787526                         0           
       0.564723           -0.000322810059                         0           
       0.565402           -0.000322832173                         0           
       0.566081           -0.000322854434                         0           
       0.566761           -0.000322876934                         0           
       0.567440           -0.000322899892                         0           
       0.568119           -0.000322922668                         0           
       0.568798           -0.000322945764                         0           
       0.569477           -0.000322968712                         0           
       0.570156             0.00113678208             0.00129471507           
       0.570836           -0.000323014744                         0           
       0.571515           -0.000323037231                         0           
       0.572194            -0.00032306037                         0           
       0.572873           -0.000323082979                         0           
       0.573552           -0.000323105456                         0           
       0.574231           -0.000323128388                         0           
       0.574911           -0.000323151898                         0           
       0.575590           -0.000323174956                         0           
       0.576269           -0.000323197943                         0           
       0.576948           -0.000323221372                         0           
       0.577627           -0.000323244087                         0           
       0.578306           -0.000323267122                         0           
       0.578985           -0.000323290353                         0           
       0.579665           -0.000323313451                         0           
       0.580344           -0.000323336899                         0           
       0.581023             0.00221532725             0.00236367891           
       0.581702           -0.000323383526                         0           
       0.582381           -0.000323406521                         0           
       0.583060           -0.000323430202                         0           
       0.583740            -0.00032345351                         0           
       0.584419           -0.000323476896                         0           
       0.585098           -0.000323500255                         0           
       0.585777           -0.000323523795                         0           
       0.586456           -0.000323547718                         0           
       0.587135           -0.000323571005                         0           
       0.587815           -0.000323594041                         0           
       0.588494           -0.000323617795                         0           
       0.589173           -0.000323642094                         0           
       0.589852           -0.000323665101                         0           
       0.590531           -0.000323688977                         0           
       0.591210           -0.000323712301                         0           
       0.591890           -0.000323736075                         0           
       0.592569           -0.000323759055                         0           
       0.593248           -0.000323784179                         0           
       0.593927           -0.000323808065                         0           
       0.594606           -0.000323832443                         0           
       0.595285           -0.000323855368                         0           
       0.595965           -0.000323876761                         0           
       0.596644           -0.000323898775                         0           
