################################################################################
# EDF_DataBlockID                     0.Image.Psd
# EDF_BinarySize                      2105344
# EDF_HeaderSize                      2560
# ByteOrder                           LowByteFirst
# DataType                            FloatValue
# Dim_1                               512
# Dim_2                               1028
# Image                               0
# HeaderID                            EH:000000:000000:000000
# Size                                2105344
# Center_1                            304.9000
# Center_2                            588.7000
# Comment                             Xenocs_Cell_Window - 20251028_20perc_iodine_1.23mg
# DDummy                              0.6
# Date                                2025-11-02T11:26:11
# Delta                               21.910000
# Dummy                               -1.5
# ExposureTime                        360
# Gamma                               15.360000
# Intensity1                          8.75861e-10
# PSize_1                             7.5e-05
# PSize_2                             7.5e-05
# Pressure                            0.0325775
# SampleDistance                      0.115750
# SampleEnvKind                       large
# SampleEnvPN                         ElectroChemical cell
# SampleEnvSN                         1141
# Thickness                           0
# Wavelength                          1.541891e-10
# Wavelength                          1.54189e-10
# aux                                 0
# aux_dial                            0.002375
# beamx                               588.434
# beamx_dial                          588.434
# beamz                               657.808
# beamz_dial                          657.808
# det0x                               0
# det0x_dial                          6.36945
# det0xvd                             0
# det0xvd_dial                        0
# det0y                               450.002
# det0y_dial                          481.635
# det0z                               0
# det0z_dial                          1.23302
# det0zvd                             0
# det0zvd_dial                        0
# mag                                 1.818
# mag_dial                            1.818
# om                                  0.2499
# om_dial                             -0.610199
# phi                                 -0.0120535
# phi_dial                            0
# ry                                  0.599993
# ry_dial                             0.599993
# s1bot                               0.8
# s1bot_dial                          -1.66094
# s1hl                                0.8
# s1hl_dial                           -0.608437
# s1hr                                0.8
# s1hr_dial                           0.970938
# s1top                               0.8
# s1top_dial                          -0.461562
# s2bot                               0.45
# s2bot_dial                          1.36109
# s2hl                                0.45
# s2hl_dial                           -0.83375
# s2hr                                0.45
# s2hr_dial                           -0.118594
# s2top                               0.45
# s2top_dial                          1.44734
# w2theta                             32
# w2theta_dial                        32
# waxsch                              19.2605
# waxsch_dial                         -32.7355
# waxsh                               137.085
# waxsh_dial                          -43.5338
# waxsth                              26.0607
# waxsth_dial                         -19.4086
# waxsz                               67.0407
# waxsz_dial                          -23.7954
# wind                                65.9854
# wind_dial                           66.0041
# wpsi                                124
# wpsi_dial                           124
# wstod                               115
# wstod_dial                          115
# x                                   0
# x_dial                              1.00969
# z                                   0
# z_dial                              13.3172
# CountCutoff                         6807993
# DetectorModel                       Dectris EIGER2 Si 500K, S/N E-01-0554
# ThresholdSetting                    4023.88989258
# Saturation                          0
# FlatField                           Corrected
# BackgroundReductionExtra            0.02
# BackgroundCorrectionConstant        0.0026712
# Detector                            0
# Monitor                             0
# Pil_Roi0                            0
# SumForIntensity1                    3.1531e+08
# TransmittedFlux                     875861
# det                                 0
# mon                                 0
# pilai0                              3.1531e+08
# pilai1                              793661
# pilct0                              5.45436e+08
# pilct1                              793661
# pilroi0                             0
# pilroi1                             0
# sec                                 1
# title                               20251028_20perc_iodine_1.23mg_1_01064.edf
# usaxs0                              0
# Operation                           Azimuthal average I(q)
# Error_model                         ErrorModel.poisson
# Geometrical_correction              True
# Transmission_correction             True
# Thickness_correction                False
# Binning mode                        Uniform
# Binning factor                      1.0
# Psi                                 0.0
# Omega                               0.2499
# MaskInvalidPixels                   True
# DetectorEdge                        3
# MaskFiles                           ['WAXS_corrected.edf']
################################################################################
    q(A⁻¹)                Intensity(a.u.)            Sigma_I(a.u.)            
       0.693100              0.0040209732              0.0041769768           
       0.695741             0.00271997376             0.00280340956           
       0.698381             0.00826572399             0.00598628653           
       0.701021           -2.31443447e-05                         0           
       0.703662             0.00827684789             0.00488811241           
       0.706302             0.00342334237             0.00243383437           
       0.708942              0.0167739361             0.00695351506           
       0.711583             0.00639692471             0.00371841896           
       0.714223           -2.30872877e-05                         0           
       0.716864             0.00971212543             0.00346099161           
       0.719504             0.00718118002             0.00321150917           
       0.722144              0.0110324971              0.0036863366           
       0.724785             0.00685788715             0.00231838015           
       0.727425             0.00714215477             0.00320069401           
       0.730065              0.0063634734             0.00213706565           
       0.732706             0.00599220925             0.00174145788           
       0.735346             0.00597715563             0.00226720549           
       0.737987             0.00686359521             0.00171678735           
       0.740627              0.0037573522               0.001895257           
       0.743267             0.00558777751             0.00154806385           
       0.745908              0.0065982488             0.00182512404           
       0.748548             0.00423841132             0.00134832325           
       0.751189              0.0085896166             0.00258640119           
       0.753829              0.0065985741             0.00208381499           
       0.756469             0.00637816635             0.00165202029           
       0.759110             0.00762347699             0.00190333195           
       0.761750             0.00850435739              0.0017775401           
       0.764390             0.00729738234             0.00172340628           
       0.767031             0.00577540052             0.00132768282           
       0.769671             0.00474716788             0.00150153416           
       0.772312             0.00964297437             0.00162920142           
       0.774952             0.00551699127             0.00166410274           
       0.777592             0.00768436678             0.00143050777           
       0.780233             0.00464595036             0.00134198367           
       0.782873             0.00746140689             0.00162653324           
       0.785513             0.00687962189             0.00166970074           
       0.788154             0.00396597535             0.00106051113           
       0.790794             0.00648110014             0.00162077835           
       0.793435             0.00946283601             0.00175938196           
       0.796075             0.00789919695             0.00154848539           
       0.798715              0.0058989734              0.0015813085           
       0.801356             0.00718372841              0.0015018939           
       0.803996             0.00911086504             0.00172439527           
       0.806637             0.00576671281             0.00109177564           
       0.809277             0.00629265254             0.00123443278           
       0.811917             0.00656522158             0.00117872613           
       0.814558             0.00841914063             0.00138730502           
       0.817198             0.00743939854               0.001238945           
       0.819838             0.00502307302             0.00103033885           
       0.822479             0.00613931384              0.0013375941           
       0.825119             0.00821964462             0.00131729993           
       0.827760             0.00739820334              0.0012659429           
       0.830400             0.00896446694             0.00131156079           
       0.833040             0.00629963782              0.0011519076           
       0.835681              0.0071031635             0.00139053155           
       0.838321             0.00574771226             0.00104987155           
       0.840961             0.00886786998             0.00142083716           
       0.843602             0.00893836519             0.00130813443           
       0.846242             0.00667759937             0.00113049521           
       0.848883             0.00621970004             0.00111652909           
       0.851523             0.00783659242             0.00123771434           
       0.854163             0.00506813671             0.00105852258           
       0.856804             0.00645155188             0.00107382621           
       0.859444             0.00700863904             0.00109662765           
       0.862085             0.00726831951             0.00116394212           
       0.864725             0.00821343636             0.00126625414           
       0.867365             0.00621445464             0.00102135293           
       0.870006              0.0069933042             0.00103246045           
       0.872646             0.00720855328             0.00109921342           
       0.875286              0.0101006981             0.00125180496           
       0.877927             0.00891575413              0.0011348706           
       0.880567             0.00746497253             0.00107584494           
       0.883208              0.0080496171             0.00110665525           
       0.885848             0.00895689298             0.00121206711           
       0.888488             0.00576571407             0.00091211329           
       0.891129             0.00697210255             0.00102987923           
       0.893769             0.00835469257             0.00107893031           
       0.896410             0.00673561339            0.000903224892           
       0.899050             0.00644397854            0.000971560162           
       0.901690             0.00624841292             0.00104212847           
       0.904331             0.00505676757            0.000831148467           
       0.906971             0.00725937916              0.0010594153           
       0.909611             0.00677864567            0.000931927404           
       0.912252             0.00915215149             0.00111848041           
       0.914892             0.00700096562             0.00106900862           
       0.917533             0.00596164399             0.00093319996           
       0.920173             0.00789732416            0.000996523704           
       0.922813             0.00609015435            0.000918327574           
       0.925454             0.00695636305            0.000883781738           
       0.928094              0.0072721336            0.000964688306           
       0.930734             0.00769968925             0.00106868899           
       0.933375             0.00725848717             0.00102741826           
       0.936015             0.00647674236            0.000881435764           
       0.938656             0.00650537261            0.000947659934           
       0.941296             0.00692532352            0.000886128363           
       0.943936             0.00654161815            0.000844569604           
       0.946577             0.00813578534            0.000935646654           
       0.949217             0.00617096808            0.000749347644           
       0.951858             0.00825796607            0.000907417461           
       0.954498             0.00775262646             0.00101767566           
       0.957138             0.00705200922            0.000919513003           
       0.959779             0.00652923902            0.000872206058           
       0.962419             0.00678248535            0.000883046988           
       0.965059             0.00646573732            0.000906788744           
       0.967700             0.00798150419             0.00103186665           
       0.970340             0.00771063839            0.000897472338           
       0.972981             0.00786208339            0.000825674444           
       0.975621             0.00784914203            0.000877652112           
       0.978261             0.00743766401            0.000811771082           
       0.980902             0.00717830777            0.000954159399           
       0.983542             0.00854628957            0.000921975168           
       0.986182             0.00652779282            0.000791104608           
       0.988823             0.00730519223            0.000812618233           
       0.991463             0.00792134776             0.00090280141           
       0.994104             0.00685500044             0.00081927662           
       0.996744             0.00918175885            0.000967133721           
       0.999384             0.00676666144            0.000742524525           
       1.002025             0.00669224743            0.000824185895           
       1.004665             0.00704408449            0.000772749731           
       1.007306             0.00846097233               0.000842574           
       1.009946              0.0082038963            0.000846152411           
       1.012586             0.00679099052            0.000749786772           
       1.015227             0.00772275306            0.000858990072           
       1.017867             0.00828841184            0.000855248596           
       1.020507             0.00862404452            0.000845031238           
       1.023148             0.00768355638            0.000860658495           
       1.025788             0.00817729659            0.000814116546           
       1.028429             0.00827899629            0.000858208404           
       1.031069             0.00810979522            0.000799311806           
       1.033709             0.00790128838            0.000838676571           
       1.036350             0.00818357806            0.000766583763           
       1.038990             0.00849101999            0.000795199783           
       1.041630             0.00801718401            0.000805927107           
       1.044271             0.00787947396            0.000751407416           
       1.046911             0.00792507349            0.000792666304           
       1.049552             0.00842099205            0.000858457667           
       1.052192             0.00730682026             0.00073018438           
       1.054832              0.0079617162            0.000769138453           
       1.057473             0.00745000129            0.000733437758           
       1.060113             0.00949260349            0.000807427397           
       1.062754             0.00937555742            0.000819271038           
       1.065394             0.00887894454            0.000842928836           
       1.068034             0.00814775237            0.000734691637           
       1.070675             0.00903207318            0.000806891931           
       1.073315             0.00726725586            0.000734154933           
       1.075955             0.00931901293            0.000784848346           
       1.078596             0.00851198168            0.000797201917           
       1.081236             0.00855990585            0.000765518817           
       1.083877              0.0108841615            0.000855471195           
       1.086517              0.0076289206             0.00076798507           
       1.089157             0.00831869194            0.000832115764           
       1.091798             0.00887606523            0.000753573542           
       1.094438              0.0103618646            0.000811578204           
       1.097078             0.00771776115            0.000671774029           
       1.099719             0.00833613781            0.000755175517           
       1.102359             0.00919388134            0.000742725328           
       1.105000             0.00899183722             0.00082133533           
       1.107640             0.00890601815             0.00078157351           
       1.110280             0.00872226985            0.000705731293           
       1.112921             0.00843117142            0.000745350047           
       1.115561             0.00756449015            0.000670996135           
       1.118202             0.00877108225            0.000723212309           
       1.120842             0.00795830008            0.000724027004           
       1.123482             0.00874714129            0.000755747452           
       1.126123             0.00820895386            0.000702234246           
       1.128763             0.00859421475            0.000723450294           
       1.131403              0.0070081937            0.000629504687           
       1.134044             0.00712007554            0.000652911959           
       1.136684             0.00960668499            0.000808587342           
       1.139325             0.00929824821            0.000732814628           
       1.141965             0.00859295779            0.000709131085           
       1.144605             0.00957985453            0.000713931732           
       1.147246             0.00962397353              0.0007323279           
       1.149886              0.0103708118            0.000757513335           
       1.152527             0.00778333158            0.000665789134           
       1.155167             0.00969302006            0.000706697507           
       1.157807             0.00899882341            0.000730068864           
       1.160448              0.0088834622            0.000708346456           
       1.163088             0.00954904661             0.00070051265           
       1.165728             0.00833978799            0.000672148198           
       1.168369             0.00843011355            0.000682021542           
       1.171009             0.00840685663            0.000660969777           
       1.173650             0.00957547194            0.000723924292           
       1.176290             0.00825318499            0.000656777271           
       1.178930             0.00973782589             0.00069920536           
       1.181571             0.00944601971             0.00070230556           
       1.184211             0.00970895548            0.000714537521           
       1.186851              0.0096018329            0.000694728426           
       1.189492                0.00880112            0.000660655982           
       1.192132             0.00842734879             0.00063922176           
       1.194773              0.0101845486            0.000705781662           
       1.197413              0.0086702346             0.00062394253           
       1.200053             0.00974085081            0.000678148043           
       1.202694             0.00823302975            0.000592871117           
       1.205334             0.00965167753            0.000691790353           
       1.207975              0.0100167728            0.000672706735           
       1.210615             0.00945230283             0.00072089678           
       1.213255             0.00972810097            0.000654896596           
       1.215896              0.0100030312            0.000676118855           
       1.218536             0.00839438715            0.000595552912           
       1.221176              0.0101474039             0.00071189319           
       1.223817             0.00945129299            0.000644937524           
       1.226457             0.00955587733            0.000661560804           
       1.229098              0.0101157015            0.000680630377           
       1.231738              0.0101669629            0.000685711041           
       1.234378             0.00903992269            0.000607566942           
       1.237019              0.0101081864            0.000662052462           
       1.239659             0.00967677906            0.000642127811           
       1.242299             0.00931995156            0.000622171014           
       1.244940             0.00981074483            0.000620828355           
       1.247580               0.010211238            0.000652742979           
       1.250221             0.00901561576            0.000609554653           
       1.252861              0.0108263885            0.000635910359           
       1.255501              0.0085854432            0.000614877834           
       1.258142              0.0104155093            0.000636396006           
       1.260782              0.0096871852            0.000627021906           
       1.263423             0.00927901634            0.000589667446           
       1.266063              0.0100667182            0.000629523374           
       1.268703             0.00931330081            0.000600483231           
       1.271344              0.0126136588             0.00072251064           
       1.273984              0.0112297523            0.000658411223           
       1.276624              0.0102131389            0.000616105739           
       1.279265              0.0120131565             0.00067929296           
       1.281905             0.00979344968            0.000616055153           
       1.284546              0.0114890809             0.00064496626           
       1.287186              0.0104811091            0.000604385383           
       1.289826              0.0103795249            0.000633878384           
       1.292467              0.0104794495            0.000622893541           
       1.295107             0.00973136723            0.000594286475           
       1.297747              0.0103269855            0.000585827755           
       1.300388              0.0101725493            0.000633833014           
       1.303028              0.0104786054            0.000614130167           
       1.305669             0.00957367973            0.000600990895           
       1.308309              0.0114386326            0.000650455399           
       1.310949              0.0100609811            0.000609416156           
       1.313590               0.011248008            0.000624222389           
       1.316230              0.0110775254            0.000661064515           
       1.318871              0.0117152482            0.000665806777           
       1.321511              0.0101805745            0.000609162699           
       1.324151              0.0114725886            0.000627491611           
       1.326792              0.0112929979            0.000626409815           
       1.329432              0.0110475205            0.000615192092           
       1.332072              0.0109626787            0.000603692317           
       1.334713              0.0103990995              0.0006068434           
       1.337353             0.00968543912            0.000561650387           
       1.339994              0.0114860427            0.000641848952           
       1.342634              0.0120283631            0.000629855682           
       1.345274              0.0113298791            0.000632632269           
       1.347915              0.0126151436            0.000649117188           
       1.350555              0.0110760877            0.000618885815           
       1.353195               0.010272397            0.000598936869           
       1.355836              0.0122072004              0.0006427289           
       1.358476              0.0121209692            0.000621978819           
       1.361117              0.0111638493            0.000597736281           
       1.363757              0.0105792843            0.000599643781           
       1.366397                0.01185344            0.000615519987           
       1.369038              0.0109823601            0.000598371331           
       1.371678              0.0116751825            0.000611517705           
       1.374319              0.0100838974            0.000563424289           
       1.376959              0.0102114755            0.000561275385           
       1.379599              0.0115878819            0.000640775448           
       1.382240              0.0111781546            0.000591489967           
       1.384880              0.0109167865            0.000619154263           
       1.387520              0.0114358863            0.000601848137           
       1.390161              0.0101577152            0.000538720863           
       1.392801              0.0107208934             0.00057664507           
       1.395442              0.0107292898            0.000584749571           
       1.398082              0.0113360414            0.000562863009           
       1.400722              0.0114010741            0.000591274831           
       1.403363              0.0114216371            0.000622949617           
       1.406003              0.0130063073             0.00062212732           
       1.408644               0.011545839            0.000614039072           
       1.411284              0.0113927193            0.000577572151           
       1.413924              0.0106511053            0.000556386839           
       1.416565              0.0113175311            0.000571276081           
       1.419205              0.0105027897            0.000574081131           
       1.421845              0.0103543297             0.00056967459           
       1.424486              0.0127861016            0.000608502245           
       1.427126              0.0121241933             0.00061553711           
       1.429767              0.0116591323            0.000567929527           
       1.432407              0.0114756131            0.000589655303           
       1.435047              0.0111867675            0.000546770304           
       1.437688              0.0107931475            0.000545094833           
       1.440328              0.0108608255            0.000558071963           
       1.442968              0.0111021755            0.000576880736           
       1.445609              0.0114308521            0.000566788531           
       1.448249              0.0110171059            0.000570524971           
       1.450890              0.0118342778            0.000587445879           
       1.453530              0.0125583997            0.000633110211           
       1.456170              0.0115342998            0.000588862394           
       1.458811              0.0112459225             0.00055599917           
       1.461451              0.0108201941            0.000546804269           
       1.464092              0.0106022686            0.000544808495           
       1.466732              0.0108100607            0.000545394061           
       1.469372             0.00975155116            0.000505881206           
       1.472013              0.0111419236            0.000583203308           
       1.474653              0.0105088113            0.000557654141           
       1.477293              0.0106458875            0.000573109254           
       1.479934              0.0101932783            0.000535114712           
       1.482574              0.0123858449            0.000570602416           
       1.485215              0.0109416882            0.000546295196           
       1.487855              0.0106812813            0.000546875532           
       1.490495              0.0121060728            0.000580064165           
       1.493136              0.0111846634            0.000549910304           
       1.495776              0.0100328332            0.000518453956           
       1.498416              0.0113311455            0.000569005805           
       1.501057              0.0104302117            0.000533885468           
       1.503697              0.0105461015            0.000524849925           
       1.506338              0.0108230139            0.000541411801           
       1.508978              0.0115432408            0.000553637328           
       1.511618              0.0111326168            0.000579038894           
       1.514259              0.0102802667            0.000537208038           
       1.516899               0.011485327            0.000552870118           
       1.519540              0.0106360332            0.000540615799           
       1.522180              0.0109766033            0.000554027433           
       1.524820              0.0102713624            0.000532927161           
       1.527461              0.0103818183            0.000538434807           
       1.530101              0.0108635412            0.000545276582           
       1.532741              0.0108246164            0.000541140053           
       1.535382              0.0107589441             0.00054818125           
       1.538022              0.0109115403            0.000520065075           
       1.540663              0.0112640599            0.000568325947           
       1.543303              0.0111110384            0.000524103274           
       1.545943              0.0110297597            0.000552691953           
       1.548584              0.0110733967             0.00056372495           
       1.551224              0.0109910007            0.000519274209           
       1.553864             0.00929644391             0.00050464139           
       1.556505              0.0111488138            0.000533860193           
       1.559145             0.00988203169             0.00050877302           
       1.561786             0.00964937936            0.000503135531           
       1.564426             0.00995619821            0.000495175524           
       1.567066              0.0103254299            0.000528382205           
       1.569707              0.0109456782             0.00053424841           
       1.572347              0.0101326171            0.000531037349           
       1.574988             0.00980734294            0.000497279304           
       1.577628             0.00987174751            0.000520239533           
       1.580268             0.00961615473            0.000497488556           
       1.582909              0.0103250153            0.000546408312           
       1.585549              0.0100072832            0.000522317977           
       1.588189              0.0101164789            0.000513698101           
       1.590830              0.0100095584            0.000510334936           
       1.593470               0.010261045            0.000537165595           
       1.596111             0.00926521533             0.00049834279           
       1.598751              0.0104881108            0.000513757067           
       1.601391              0.0103357114            0.000521263033           
       1.604032              0.0107815265            0.000543515917           
       1.606672             0.00932980934             0.00049124005           
       1.609312             0.00974421305            0.000524061932           
       1.611953               0.010128671              0.0005228462           
       1.614593              0.0098571497            0.000505949703           
       1.617234             0.00972043299             0.00052070546           
       1.619874              0.0103025885            0.000533953615           
       1.622514             0.00952616915            0.000506435688           
       1.625155             0.00888472125            0.000491977346           
       1.627795             0.00885820926             0.00047920644           
       1.630436             0.00894639428            0.000479071143           
       1.633076             0.00876562578            0.000480425858           
       1.635716              0.0093252169            0.000487813719           
       1.638357               0.010290706            0.000513795566           
       1.640997              0.0100180971             0.00052230084           
       1.643637             0.00881177387            0.000476675603           
       1.646278             0.00870072527            0.000488544997           
       1.648918             0.00942603879            0.000509887739           
       1.651559              0.0081538044            0.000477911912           
       1.654199             0.00885880699            0.000484489273           
       1.656839             0.00868214014            0.000479801402           
       1.659480              0.0101044358             0.00053704907           
       1.662120             0.00928865476            0.000484963766           
       1.664761             0.00901593444            0.000496301853           
       1.667401             0.00913244107            0.000477413368           
       1.670041             0.00871607825            0.000473514987           
       1.672682             0.00931152289            0.000487410436           
       1.675322             0.00948037052            0.000488647162           
       1.677962             0.00891528287            0.000468632974           
       1.680603             0.00939957313              0.0004826738           
       1.683243              0.0101510408            0.000523322942           
       1.685884             0.00924786864            0.000503188421           
       1.688524             0.00895276917            0.000485524707           
       1.691164             0.00860896114            0.000476218845           
       1.693805             0.00851444038            0.000478799998           
       1.696445             0.00936616123            0.000505090082           
       1.699085             0.00889359187            0.000475690891           
       1.701726             0.00951284415            0.000473930277           
       1.704366             0.00862527791            0.000475410808           
       1.707007             0.00901052796            0.000475080494           
       1.709647             0.00785552013            0.000448597233           
       1.712287             0.00823596047             0.00046332965           
       1.714928             0.00900429145            0.000488365793           
       1.717568             0.00920957235            0.000465257014           
       1.720209             0.00894531877            0.000480282078           
       1.722849             0.00815321298            0.000456167513           
       1.725489             0.00892199051            0.000477590146           
       1.728130             0.00784903184            0.000476048593           
       1.730770             0.00891832707            0.000481931889           
       1.733410             0.00819873324            0.000454816732           
       1.736051             0.00872542679            0.000472464095           
       1.738691             0.00856873131            0.000458711434           
       1.741332              0.0088521866            0.000479869907           
       1.743972             0.00849355217            0.000485405172           
       1.746612             0.00980679397            0.000500852439           
       1.749253             0.00817081662            0.000466199739           
       1.751893             0.00739617947            0.000440294701           
       1.754533             0.00834080592            0.000467130233           
       1.757174             0.00874153063            0.000473741687           
       1.759814                0.00845329            0.000458804089           
       1.762455             0.00897808576            0.000481513541           
       1.765095             0.00925358105            0.000467640074           
       1.767735             0.00897052624            0.000474636609           
       1.770376             0.00872786258            0.000469407079           
       1.773016             0.00908604768             0.00047573421           
       1.775657             0.00756947543            0.000427972113           
       1.778297             0.00772263863            0.000428557982           
       1.780937             0.00802253265             0.00046104208           
       1.783578              0.0087182864            0.000468600896           
       1.786218             0.00859977844            0.000485701187           
       1.788858              0.0096845728            0.000489529708           
       1.791499             0.00808409991            0.000442231352           
       1.794139             0.00834934244            0.000445781403           
       1.796780             0.00935252568            0.000469528013           
       1.799420             0.00845616818            0.000443988948           
       1.802060              0.0090021486            0.000461798244           
       1.804701              0.0090306068            0.000443862534           
       1.807341             0.00894007117            0.000464059147           
       1.809981             0.00892404615            0.000465188854           
       1.812622             0.00846850448            0.000445001845           
       1.815262             0.00917087848            0.000472925483           
       1.817903             0.00902082473            0.000462090813           
       1.820543             0.00867589105            0.000460231522           
       1.823183             0.00877732573            0.000462659629           
       1.825824               0.008724868            0.000440683463           
       1.828464             0.00952592486            0.000480059392           
       1.831105               0.008128223            0.000431184134           
       1.833745             0.00813371837            0.000440541766           
       1.836385             0.00779037117            0.000443447415           
       1.839026             0.00830435797            0.000456395948           
       1.841666             0.00820242744            0.000451977935           
       1.844306             0.00867642267            0.000452170036           
       1.846947             0.00762271551            0.000427539857           
       1.849587             0.00868392053            0.000503899698           
       1.852228             0.00884671489            0.000459901324           
       1.854868             0.00861648397            0.000479454487           
       1.857508             0.00850144933            0.000471572303           
       1.860149             0.00835077929            0.000475866348           
       1.862789             0.00823214664            0.000456046807           
       1.865429             0.00823086454             0.00047600602           
       1.868070             0.00828151107            0.000471104451           
       1.870710             0.00849709258            0.000466195298           
       1.873351             0.00764063197            0.000447541497           
       1.875991             0.00776704444            0.000458592688           
       1.878631             0.00800736557            0.000456715423           
       1.881272             0.00885917386            0.000477175101           
       1.883912             0.00783726541            0.000467081656           
       1.886553             0.00751635225            0.000452304941           
       1.889193             0.00786951643            0.000462018212           
       1.891833             0.00786588045             0.00047971307           
       1.894474             0.00799684762            0.000479477748           
       1.897114             0.00806798969            0.000466039885           
       1.899754              0.0088200752             0.00048931654           
       1.902395             0.00826266235            0.000464342756           
       1.905035              0.0082031736            0.000490043138           
       1.907676             0.00773974499            0.000448631127           
       1.910316             0.00734204821            0.000448554813           
       1.912956             0.00785748296             0.00045382397           
       1.915597             0.00708999948            0.000433500161           
       1.918237             0.00821931466            0.000482038779           
       1.920878              0.0077569355            0.000466366952           
       1.923518             0.00805916857            0.000475567346           
       1.926158             0.00802596452            0.000468428193           
       1.928799             0.00827896797            0.000470247082           
       1.931439             0.00830867478            0.000483446213           
       1.934079             0.00834264861            0.000505010109           
       1.936720             0.00837397599            0.000468784228           
       1.939360               0.007637449            0.000477627095           
       1.942001             0.00815189249            0.000452273106           
       1.944641             0.00740336286            0.000439498628           
       1.947281             0.00734634452             0.00043376747           
       1.949922             0.00776497852            0.000460632519           
       1.952562              0.0075011947            0.000466932296           
       1.955202             0.00816648424            0.000486604976           
       1.957843             0.00813826041            0.000473166138           
       1.960483             0.00804246586            0.000491774447           
       1.963124             0.00812961721            0.000484288321           
       1.965764             0.00800176746            0.000453092115           
       1.968404             0.00773563614            0.000441284494           
       1.971045             0.00756242947            0.000444847289           
       1.973685             0.00841431704            0.000492191712           
       1.976326             0.00895938703            0.000500903178           
       1.978966             0.00728614617            0.000455678203           
       1.981606             0.00738373783            0.000468286656           
       1.984247              0.0078447174            0.000479509922           
       1.986887              0.0080584851            0.000480177601           
       1.989527             0.00724874282             0.00045050964           
       1.992168             0.00788397427            0.000487493604           
       1.994808             0.00765080195            0.000478172024           
       1.997449             0.00704800972            0.000449523267           
       2.000089             0.00728361007            0.000455163066           
       2.002729             0.00766111286            0.000467089275           
       2.005370             0.00739776738            0.000454052534           
       2.008010             0.00727959514            0.000470068867           
       2.010650              0.0074764345            0.000479936462           
       2.013291             0.00725896597            0.000453726123           
       2.015931             0.00739985318            0.000454869766           
       2.018572             0.00730989052             0.00048355975           
       2.021212              0.0080970905            0.000499787521           
       2.023852             0.00785926089            0.000466026666           
       2.026493             0.00786657804            0.000487074346           
       2.029133             0.00722735408            0.000457470506           
       2.031774             0.00759606528            0.000492199337           
       2.034414             0.00783885746            0.000460072701           
       2.037054             0.00729080586            0.000454944681           
       2.039695             0.00858989403            0.000490085939           
       2.042335             0.00663779177            0.000447710678           
       2.044975             0.00739258157            0.000466750405           
       2.047616             0.00814922105            0.000488837521           
       2.050256              0.0073804123            0.000469610115           
       2.052897             0.00778080802            0.000491069594           
       2.055537             0.00766958848            0.000471195897           
       2.058177             0.00712844929            0.000444851743           
       2.060818              0.0073517451            0.000473259268           
       2.063458             0.00773219617            0.000505783267           
       2.066098             0.00774357905            0.000477474117           
       2.068739             0.00703421151            0.000462152617           
       2.071379             0.00806006072            0.000507607723           
       2.074020             0.00739083891            0.000475514137           
       2.076660             0.00710860702            0.000470116527           
       2.079300             0.00782762689            0.000505406867           
       2.081941             0.00672369898            0.000428886718           
       2.084581             0.00700771253             0.00046215628           
       2.087222             0.00779802864            0.000470167198           
       2.089862             0.00708248774            0.000488024423           
       2.092502             0.00812012078            0.000506539998           
       2.095143             0.00723420265            0.000493720091           
       2.097783             0.00691197983            0.000467237363           
       2.100423             0.00815901166             0.00048915705           
       2.103064             0.00713360051            0.000474600604           
       2.105704             0.00752826323             0.00048513742           
       2.108345             0.00735702152            0.000460755914           
       2.110985             0.00691595099             0.00047714078           
       2.113625             0.00676841893            0.000476143223           
       2.116266             0.00692979641            0.000488621468           
       2.118906             0.00717974025            0.000463507192           
       2.121546             0.00797521715            0.000479182742           
       2.124187             0.00712486244            0.000475422455           
       2.126827             0.00736684334            0.000488823827           
       2.129468             0.00819167078            0.000516780138           
       2.132108             0.00753132158            0.000482096565           
       2.134748             0.00764532393            0.000483847099           
       2.137389             0.00762524161            0.000504109318           
       2.140029             0.00711586706            0.000435974928           
       2.142670             0.00809032726            0.000496815586           
       2.145310             0.00806491455            0.000482799453           
       2.147950             0.00787040154             0.00049090302           
       2.150591             0.00676110108            0.000450396117           
       2.153231             0.00639344409            0.000450831361           
       2.155871             0.00759258539            0.000474622748           
       2.158512             0.00711020935            0.000479245277           
       2.161152             0.00800812839            0.000492668277           
       2.163793             0.00756962268            0.000476833367           
       2.166433             0.00693594962            0.000468714489           
       2.169073             0.00709374123            0.000463462883           
       2.171714              0.0071353989            0.000461346959           
       2.174354             0.00758739334            0.000497098821           
       2.176995               0.007691865            0.000498403402           
       2.179635             0.00802001447            0.000537787489           
       2.182275             0.00690453478            0.000471124097           
       2.184916             0.00744973198            0.000472669045           
       2.187556             0.00785179499            0.000480392794           
       2.190196             0.00796029754            0.000505460649           
       2.192837             0.00721581718            0.000478625785           
       2.195477             0.00716131383            0.000454586234           
       2.198118             0.00735066616            0.000472357979           
       2.200758             0.00803465307            0.000506655939           
       2.203398             0.00769959854            0.000499152327           
       2.206039             0.00748091781            0.000465648568           
       2.208679             0.00759353942            0.000480058737           
       2.211319             0.00717881933            0.000469456883           
       2.213960              0.0078020996             0.00049596968           
       2.216600             0.00692163239            0.000483253247           
       2.219241             0.00777522338             0.00048951057           
       2.221881             0.00737106833            0.000477598412           
       2.224521             0.00691286279            0.000468183453           
       2.227162              0.0074060443            0.000474893715           
       2.229802             0.00787820453            0.000505130494           
       2.232443             0.00712388206            0.000472763172           
       2.235083             0.00650852118            0.000465212779           
       2.237723             0.00704515922             0.00046447952           
       2.240364             0.00687607225             0.00047017646           
       2.243004             0.00682632204            0.000464732862           
       2.245644             0.00707991203             0.00047802362           
       2.248285             0.00735072353            0.000477322536           
       2.250925             0.00700000344            0.000468625812           
       2.253566             0.00662563836            0.000487415962           
       2.256206             0.00733535334            0.000502602522           
       2.258846             0.00698856916            0.000466675604           
       2.261487             0.00770270892            0.000514237254           
       2.264127             0.00756037453            0.000492032208           
       2.266767             0.00827752081            0.000528556427           
       2.269408             0.00668344277             0.00047688773           
       2.272048             0.00732776453            0.000496365581           
       2.274689             0.00708117158            0.000494371583           
       2.277329             0.00643467393            0.000443725373           
       2.279969             0.00694770904             0.00049078819           
       2.282610             0.00780617686            0.000505757599           
       2.285250               0.006717805            0.000449066358           
       2.287891             0.00805085153            0.000527076537           
       2.290531             0.00655561812            0.000482013045           
       2.293171             0.00763992884            0.000506869198           
       2.295812              0.0074441033             0.00049831987           
       2.298452             0.00725431241            0.000514424294           
       2.301092             0.00664568322             0.00045747389           
       2.303733              0.0058574248            0.000446816341           
       2.306373             0.00729371271            0.000506449568           
       2.309014             0.00732775138             0.00049772724           
       2.311654             0.00769332717            0.000532200591           
       2.314294              0.0074113182            0.000481247839           
       2.316935             0.00731467183            0.000480074947           
       2.319575             0.00802857512            0.000526982526           
       2.322215             0.00757561817            0.000533487306           
       2.324856             0.00734167772            0.000482853582           
       2.327496             0.00590906914            0.000460615845           
       2.330137             0.00756468479            0.000498715358           
       2.332777             0.00663090216            0.000481445584           
       2.335417             0.00793824084            0.000511048015           
       2.338058             0.00750754202            0.000511837128           
       2.340698             0.00848015585            0.000539707524           
       2.343339             0.00742894023            0.000516265858           
       2.345979             0.00706937405            0.000476461818           
       2.348619             0.00600626666            0.000455230847           
       2.351260             0.00738877399            0.000501970117           
       2.353900             0.00787486544            0.000516577285           
       2.356540             0.00682138774            0.000480101622           
       2.359181             0.00718670911            0.000485881278           
       2.361821             0.00745321854            0.000477971723           
       2.364462             0.00705314168            0.000486296689           
       2.367102             0.00793408109            0.000530038922           
       2.369742             0.00706946604            0.000526627281           
       2.372383              0.0071704277            0.000480252739           
       2.375023             0.00714945346            0.000504110786           
       2.377663             0.00763438395            0.000498082357           
       2.380304             0.00722745022            0.000492706562           
       2.382944             0.00713160991            0.000466165506           
       2.385585             0.00679032702            0.000485131604           
       2.388225             0.00742694652            0.000504979596           
       2.390865             0.00652204144            0.000468356136           
       2.393506             0.00691711539            0.000473233192           
       2.396146             0.00738198918            0.000528595608           
       2.398787              0.0060734754            0.000441862757           
       2.401427             0.00670362405            0.000448079052           
       2.404067             0.00799234972            0.000500170178           
       2.406708             0.00809978201            0.000497482541           
       2.409348             0.00783365741             0.00051893653           
       2.411988             0.00758680882            0.000500368034           
       2.414629             0.00669901131             0.00048482454           
       2.417269             0.00772685377            0.000526770833           
       2.419910             0.00753757832            0.000521486277           
       2.422550             0.00670781957            0.000470663837           
       2.425190             0.00750474131            0.000524773196           
       2.427831             0.00746597399            0.000520473723           
       2.430471             0.00748334895            0.000496428401           
       2.433112              0.0067087316            0.000457700608           
       2.435752             0.00597676265            0.000457201968           
       2.438392             0.00752138543            0.000495043403           
       2.441033             0.00749606352            0.000523762605           
       2.443673              0.0067832345            0.000498620377           
       2.446313             0.00666942144            0.000494855536           
       2.448954             0.00705550447            0.000484617509           
       2.451594             0.00756664184            0.000539621831           
       2.454235             0.00786180025            0.000516083482           
       2.456875             0.00785402117            0.000539741066           
       2.459515             0.00760706695            0.000544938785           
       2.462156             0.00773039472            0.000518651928           
       2.464796             0.00773273269            0.000512037874           
       2.467436             0.00850942539            0.000555463556           
       2.470077             0.00759268209            0.000497311199           
       2.472717             0.00732818495            0.000490688693           
       2.475358             0.00622864901            0.000457098441           
       2.477998             0.00713394063            0.000480942939           
       2.480638             0.00740652417            0.000498752722           
       2.483279             0.00737195053            0.000520058021           
       2.485919             0.00741841065            0.000502771662           
       2.488560              0.0072773756            0.000496578105           
       2.491200             0.00664930951            0.000488780898           
       2.493840             0.00678504561            0.000522446418           
       2.496481             0.00668303798            0.000510022669           
       2.499121             0.00746832888            0.000524415063           
       2.501761             0.00717941329            0.000520983918           
       2.504402              0.0079513558            0.000540267209           
       2.507042             0.00741843778            0.000517982453           
       2.509683             0.00754741681            0.000514480834           
       2.512323             0.00664281642            0.000506918572           
       2.514963             0.00591380174            0.000472385503           
       2.517604             0.00775347456            0.000561259675           
       2.520244             0.00738765902            0.000513619143           
       2.522884             0.00856210455            0.000560847611           
       2.525525               0.010251044            0.000620640658           
       2.528165             0.00832942543            0.000550732533           
       2.530806             0.00726777416            0.000523405837           
       2.533446             0.00764710178            0.000525431614           
       2.536086             0.00677150409            0.000490010895           
       2.538727             0.00758063816             0.00049738447           
       2.541367              0.0065214654            0.000465874574           
       2.544008             0.00698070224            0.000497787114           
       2.546648             0.00675816596            0.000498189616           
       2.549288             0.00710305238            0.000521150211           
       2.551929             0.00687528096            0.000504553407           
       2.554569             0.00738580786            0.000503819429           
       2.557209             0.00745254283            0.000510738279           
       2.559850             0.00703968888            0.000497983873           
       2.562490             0.00744942148            0.000529459643           
       2.565131             0.00598579561            0.000492092085           
       2.567771              0.0077744772            0.000540711623           
       2.570411             0.00706763972             0.00050996773           
       2.573052             0.00738614069            0.000527897327           
       2.575692             0.00708208478            0.000513787308           
       2.578332             0.00729390327            0.000523570329           
       2.580973               0.007236431             0.00051654158           
       2.583613             0.00737387058            0.000509008185           
       2.586254             0.00715324571            0.000500638906           
       2.588894             0.00683948975            0.000508360053           
       2.591534             0.00704695654            0.000534169937           
       2.594175              0.0077919202            0.000551095935           
       2.596815             0.00657810338            0.000509340833           
       2.599456             0.00634486057             0.00047436519           
       2.602096             0.00666169098             0.00048976373           
       2.604736             0.00622007811            0.000484473661           
       2.607377             0.00762199425            0.000522165256           
       2.610017             0.00692814166            0.000489119255           
       2.612657             0.00648477686            0.000503330171           
       2.615298             0.00711081778            0.000514582485           
       2.617938             0.00706754485            0.000548794246           
       2.620579             0.00705639466             0.00052642117           
       2.623219              0.0070818271            0.000526617222           
       2.625859             0.00665705189            0.000496426482           
       2.628500             0.00800397685            0.000540767874           
       2.631140             0.00667135494            0.000501309232           
       2.633780             0.00834994454            0.000560354378           
       2.636421             0.00635245692            0.000500775141           
       2.639061             0.00703131048            0.000495972203           
       2.641702             0.00724439094            0.000515085956           
       2.644342             0.00712625568            0.000513045704           
       2.646982             0.00716297999            0.000506676312           
       2.649623             0.00751828686            0.000543986123           
       2.652263             0.00746867863            0.000536747609           
       2.654904             0.00664954582            0.000506968433           
       2.657544             0.00774631017            0.000515389358           
       2.660184             0.00657325126             0.00050243896           
       2.662825             0.00755470094            0.000551140457           
       2.665465             0.00718577218            0.000519865284           
       2.668105             0.00684501514            0.000534807769           
       2.670746             0.00734192289            0.000511666683           
       2.673386              0.0088848465            0.000580081446           
       2.676027             0.00772082183            0.000532070425           
       2.678667              0.0106267141            0.000609081514           
       2.681307              0.0120340142            0.000636852533           
       2.683948              0.0146486881            0.000721930226           
       2.686588             0.00993189464            0.000584587277           
       2.689229              0.0107287593            0.000593708326           
       2.691869              0.0097971285             0.00059962802           
       2.694509             0.00937872607            0.000587006643           
       2.697150             0.00793216151             0.00053108384           
       2.699790             0.00707408407            0.000525788821           
       2.702430             0.00771845586            0.000524982385           
       2.705071             0.00685982477            0.000511407624           
       2.707711             0.00725733329            0.000510538261           
       2.710352             0.00724706139            0.000539065674           
       2.712992             0.00703302704            0.000540864692           
       2.715632             0.00688209448            0.000496401313           
       2.718273             0.00750417222            0.000537201126           
       2.720913             0.00706005329            0.000519579535           
       2.723553             0.00623747577            0.000491650693           
       2.726194              0.0073676513            0.000558560226           
       2.728834             0.00758884547             0.00056714883           
       2.731475             0.00692237907            0.000499916321           
       2.734115             0.00631993731            0.000492492478           
       2.736755              0.0067486024             0.00051310955           
       2.739396             0.00711657892            0.000523860024           
       2.742036             0.00633376862            0.000517221182           
       2.744677             0.00751402008            0.000546608675           
       2.747317              0.0073312011            0.000536068117           
       2.749957             0.00802248767            0.000564708208           
       2.752598              0.0072687982            0.000543361282           
       2.755238             0.00815363364            0.000585872416           
       2.757878             0.00738719781            0.000552781475           
       2.760519             0.00776813357            0.000560844475           
       2.763159              0.0100635406             0.00063197175           
       2.765800             0.00868768992            0.000559577458           
       2.768440             0.00735109018             0.00051852727           
       2.771080             0.00890642401            0.000575516083           
       2.773721             0.00723971825             0.00053226475           
       2.776361             0.00731892059            0.000542551489           
       2.779001             0.00722504613            0.000558252081           
       2.781642             0.00582202308             0.00049743302           
       2.784282             0.00662205837            0.000539234393           
       2.786923             0.00697278737             0.00055820205           
       2.789563             0.00632538705             0.00051204841           
       2.792203             0.00755175795            0.000534471698           
       2.794844             0.00748351731            0.000583119611           
       2.797484             0.00719298403            0.000539534286           
       2.800125             0.00796231947            0.000596889202           
       2.802765             0.00737671283            0.000564636586           
       2.805405             0.00634657281             0.00052550233           
       2.808046              0.0074248879            0.000578386733           
       2.810686              0.0074874959            0.000533706169           
       2.813326             0.00673822779            0.000525904565           
       2.815967             0.00751148047            0.000571048273           
       2.818607             0.00683727586            0.000519905914           
       2.821248             0.00703667786            0.000516482689           
       2.823888             0.00615221075            0.000501297449           
       2.826528             0.00689052883            0.000513787623           
       2.829169             0.00696191081            0.000540944091           
       2.831809             0.00730127981            0.000561507013           
       2.834449             0.00712319511            0.000558121928           
       2.837090             0.00721124617            0.000542378723           
       2.839730             0.00674860667            0.000522130343           
       2.842371              0.0064795923            0.000512356272           
       2.845011             0.00694820664             0.00053478918           
       2.847651             0.00651851207            0.000518625108           
       2.850292             0.00663083442            0.000528207835           
       2.852932             0.00688642372            0.000550022792           
       2.855573             0.00677526963            0.000529214172           
       2.858213              0.0071221425            0.000569787559           
       2.860853             0.00732413703            0.000537497046           
       2.863494              0.0070886315            0.000547482994           
       2.866134             0.00706856847            0.000568234857           
       2.868774             0.00595055267            0.000512393646           
       2.871415             0.00594622479            0.000520185652           
       2.874055             0.00677479252            0.000530746462           
       2.876696             0.00630963236            0.000526056182           
       2.879336             0.00694518353            0.000531939662           
       2.881976             0.00641440177             0.00052727696           
       2.884617             0.00807908199            0.000583063891           
       2.887257             0.00777810986             0.00057505323           
       2.889897             0.00680159432            0.000526677668           
       2.892538             0.00715371226             0.00059172389           
       2.895178             0.00746669167            0.000546152097           
       2.897819              0.0057315187            0.000488118436           
       2.900459              0.0065566328            0.000511916502           
       2.903099             0.00767435842            0.000548165039           
       2.905740             0.00709242944            0.000540606264           
       2.908380             0.00627589056            0.000514313603           
       2.911021             0.00705584404             0.00055420311           
       2.913661             0.00611677742            0.000515852665           
       2.916301             0.00675784801            0.000542728358           
       2.918942             0.00677942734            0.000519961214           
       2.921582              0.0056228354            0.000495454084           
       2.924222             0.00733273169            0.000548145932           
       2.926863             0.00828546539            0.000606916792           
       2.929503             0.00746529981            0.000582920542           
       2.932144             0.00708917802            0.000545289632           
       2.934784             0.00726919442            0.000543115536           
       2.937424              0.0080447636            0.000577220585           
       2.940065             0.00633301725            0.000488535204           
       2.942705             0.00646831286            0.000493106623           
       2.945346             0.00765997996            0.000569479516           
       2.947986             0.00678524959            0.000546512381           
       2.950626             0.00740513785            0.000567716508           
       2.953267             0.00661020139            0.000527713191           
       2.955907             0.00771289289            0.000591329885           
       2.958547             0.00674291668            0.000521964145           
       2.961188             0.00672942743            0.000544009375           
       2.963828             0.00900629187            0.000615617948           
       2.966469             0.00664369109             0.00051869308           
       2.969109             0.00596271079            0.000498672183           
       2.971749             0.00662786858            0.000522471314           
       2.974390             0.00708869651            0.000530972636           
       2.977030              0.0073963671            0.000554494219           
       2.979670             0.00901421397            0.000595425339           
       2.982311             0.00895928942            0.000615245417           
       2.984951             0.00768854615            0.000542068797           
       2.987592             0.00788945578            0.000560103662           
       2.990232             0.00764488101            0.000573401857           
       2.992872             0.00806775414            0.000554849124           
       2.995513             0.00893933741            0.000571394738           
       2.998153              0.0114709593            0.000658141873           
       3.000794              0.0114528905            0.000636975744           
       3.003434              0.0136004044            0.000695178752           
       3.006074              0.0502676155             0.00131775484           
       3.008715               0.122008069             0.00198176962           
       3.011355               0.187638501             0.00236996759           
       3.013995              0.0951733122             0.00169246238           
       3.016636              0.0608928542              0.0013256607           
       3.019276               0.132296325             0.00192073581           
       3.021917                0.50496834             0.00360825323           
       3.024557                1.65316491             0.00641878755           
       3.027197                1.12681487             0.00516657058           
       3.029838               0.514453716             0.00354051333           
       3.032478               0.257517443             0.00250748165           
       3.035118              0.0698994623             0.00132391207           
       3.037759              0.0984102648              0.0015688511           
       3.040399               0.130301208             0.00186215361           
       3.043040               0.538463418             0.00383186614           
       3.045680               0.386074779             0.00305275605           
       3.048320              0.0860106912             0.00147224392           
       3.050961                0.10777279             0.00167704165           
       3.053601              0.0840539741             0.00142642641           
       3.056242              0.0546166439             0.00122251108           
       3.058882              0.0468757144             0.00121490906           
       3.061522              0.0353250568             0.00103474429           
       3.064163              0.0433458604             0.00113177966           
       3.066803              0.0995258342             0.00180549187           
       3.069443              0.0996124489             0.00188982881           
       3.072084              0.0537674017             0.00135196395           
       3.074724              0.0410866148             0.00131983654           
       3.077365               0.083430688             0.00194691263           
       3.080005              0.0186414423            0.000925501835           
       3.082645             0.00978612176            0.000704447373           
       3.085286              0.0131773732            0.000823892704           
       3.087926             0.00872756493            0.000665338471           
       3.090566              0.0105479541            0.000716672504           
       3.093207              0.0100145369             0.00072667018           
       3.095847             0.00919905016            0.000667541955           
       3.098488             0.00882843212            0.000725125838           
       3.101128              0.0103148852             0.00078883801           
       3.103768             0.00962407372             0.00074762987           
       3.106409              0.0088041106             0.00076102921           
       3.109049             0.00900954944            0.000738793731           
       3.111690             0.00777092352            0.000674353745           
       3.114330             0.00801585203            0.000699468686           
       3.116970             0.00836465167             0.00072001039           
       3.119611              0.0124914181            0.000936568313           
       3.122251              0.0200875047             0.00124234497           
       3.124891              0.0326617414             0.00159891539           
       3.127532              0.0231271785             0.00131624047           
       3.130172              0.0148013309             0.00107118515           
       3.132813               0.011158736             0.00091563454           
       3.135453             0.00823390394             0.00078005528           
       3.138093             0.00675541701            0.000765581908           
       3.140734             0.00635220469            0.000684905162           
       3.143374             0.00626980501            0.000719603967           
       3.146014             0.00775213327            0.000861409342           
       3.148655             0.00868598492             0.00084761992           
       3.151295             0.00572291055            0.000733191227           
       3.153936             0.00585325222            0.000716260445           
       3.156576             0.00493915187            0.000649008979           
       3.159216             0.00567546182            0.000699184766           
       3.161857             0.00586094772            0.000707626663           
       3.164497             0.00725201693            0.000827052926           
       3.167138             0.00773995301            0.000882827751           
       3.169778             0.00642077545            0.000790822012           
       3.172418             0.00599899724            0.000756631192           
       3.175059             0.00486839593            0.000604278766           
       3.177699             0.00569842844            0.000692298019           
       3.180339             0.00657281075            0.000796621179           
       3.182980             0.00556678432            0.000757977545           
       3.185620             0.00619743704            0.000814488464           
       3.188261             0.00675566938            0.000865555412           
       3.190901             0.00636960619             0.00077297914           
       3.193541              0.0061069801            0.000795294143           
       3.196182             0.00753934798            0.000920892486           
       3.198822             0.00685514538            0.000878407247           
       3.201463             0.00596626798            0.000805362615           
       3.204103             0.00558313994             0.00077433515           
       3.206743             0.00708687705            0.000872321148           
       3.209384             0.00550874632            0.000830932585           
       3.212024             0.00718430523            0.000884695517           
       3.214664             0.00420783933            0.000769920522           
       3.217305             0.00467276932            0.000771235781           
       3.219945             0.00524743684            0.000841197373           
       3.222586             0.00685461659            0.000915742331           
       3.225226             0.00572543036            0.000928436286           
       3.227866             0.00462883184            0.000763001094           
       3.230507             0.00660407559             0.00094473616           
       3.233147             0.00754139628             0.00101770799           
       3.235787             0.00573756559            0.000908439396           
       3.238428             0.00534616764            0.000946293357           
       3.241068             0.00568975121            0.000912821443           
       3.243709             0.00641720936             0.00100156564           
       3.246349             0.00715599559            0.000964145188           
       3.248989             0.00507490432            0.000958714589           
       3.251630             0.00553118796            0.000963825919           
       3.254270             0.00683529601            0.000957577269           
       3.256911             0.00829221145             0.00115079846           
       3.259551             0.00705332218             0.00114264405           
       3.262191             0.00619397129             0.00109374437           
       3.264832             0.00547181269             0.00107411522           
       3.267472             0.00629283506             0.00108059027           
       3.270112             0.00676990686             0.00123862998           
       3.272753             0.00645851105             0.00110736611           
       3.275393             0.00572614634             0.00106390958           
       3.278034              0.0049175161            0.000986485794           
       3.280674             0.00628994352             0.00121067235           
       3.283314              0.0050311513            0.000968381659           
       3.285955             0.00636476225             0.00112380574           
       3.288595             0.00544490933             0.00115640541           
       3.291235             0.00675527887             0.00132411569           
       3.293876             0.00555474653             0.00121795929           
       3.296516             0.00640461466             0.00125553416           
       3.299157             0.00768106545             0.00135769187           
       3.301797              0.0074873048             0.00152904018           
       3.304437             0.00586386788             0.00117234952           
       3.307078             0.00766695836             0.00147667649           
       3.309718             0.00545988882             0.00128623703           
       3.312359             0.00515497634             0.00125010243           
       3.314999              0.0043878176             0.00113555551           
       3.317639             0.00430833127              0.0010761376           
       3.320280             0.00509778098             0.00124457599           
       3.322920              0.0069101147             0.00147340529           
       3.325560             0.00497242814             0.00125071629           
       3.328201             0.00660731399             0.00129846086           
       3.330841             0.00492764008             0.00136473637           
       3.333482             0.00575979536             0.00139466565           
       3.336122             0.00471798324             0.00126282847           
       3.338762             0.00310970328             0.00118431126           
       3.341403              0.0061664239             0.00159357294           
       3.344043              0.0049073571             0.00136485851           
       3.346683             0.00274310479             0.00104178012           
       3.349324             0.00450553036             0.00150114017           
       3.351964             0.00332359696             0.00136338189           
       3.354605            -2.5401823e-05                         0           
       3.357245             0.00593177861             0.00187913413           
       3.359885             0.00648457804             0.00157250396           
       3.362526             0.00471079857             0.00167608634           
       3.365166             0.00369318788             0.00139975057           
       3.367807             0.00521989692             0.00212971711           
       3.370447             0.00479268072              0.0016927929           
       3.373087             0.00745427591             0.00225758738           
       3.375728             0.00603029338             0.00229166053           
       3.378368           -2.56199543e-05                         0           
       3.381008             0.00427891372             0.00213597352           
       3.383649             0.00476078753             0.00180739451           
       3.386289             0.00577359649             0.00235568553           
       3.388930             0.00240721614             0.00240599632           
       3.391570             0.00474244601             0.00238891722           
       3.394210             0.00971463321             0.00432696195           
       3.396851             0.00481442422             0.00340734294           
       3.399491             0.00704456472             0.00412280544           
       3.402131            -2.5802448e-05                         0           
       3.404772              0.0094287513             0.00954572935           
       3.407412                       nan                       nan           
       3.410053           -2.58784838e-05                         0           
       3.412693                       nan                       nan           
       3.415333           -2.59279371e-05                         0           
