################################################################################
# EDF_DataBlockID                     0.Image.Psd
# EDF_BinarySize                      2105344
# EDF_HeaderSize                      2560
# ByteOrder                           LowByteFirst
# DataType                            FloatValue
# Dim_1                               512
# Dim_2                               1028
# Image                               0
# HeaderID                            EH:000000:000000:000000
# Size                                2105344
# Center_1                            304.9000
# Center_2                            588.7000
# Comment                             Xenocs_Cell_Window - 20251028_20perc_iodine_1.23mg
# DDummy                              0.6
# Date                                2025-10-31T20:47:40
# Delta                               21.910000
# Dummy                               -1.5
# ExposureTime                        360
# Gamma                               15.360000
# Intensity1                          8.60811e-10
# PSize_1                             7.5e-05
# PSize_2                             7.5e-05
# Pressure                            0.0327625
# SampleDistance                      0.115750
# SampleEnvKind                       large
# SampleEnvPN                         ElectroChemical cell
# SampleEnvSN                         1141
# Thickness                           0
# Wavelength                          1.541891e-10
# Wavelength                          1.54189e-10
# aux                                 0
# aux_dial                            0.002375
# beamx                               588.434
# beamx_dial                          588.434
# beamz                               657.808
# beamz_dial                          657.808
# det0x                               0
# det0x_dial                          6.36945
# det0xvd                             0
# det0xvd_dial                        0
# det0y                               450.002
# det0y_dial                          481.635
# det0z                               0
# det0z_dial                          1.23302
# det0zvd                             0
# det0zvd_dial                        0
# mag                                 1.818
# mag_dial                            1.818
# om                                  0.2499
# om_dial                             -0.610199
# phi                                 -0.0120535
# phi_dial                            0
# ry                                  0.599993
# ry_dial                             0.599993
# s1bot                               0.8
# s1bot_dial                          -1.66094
# s1hl                                0.8
# s1hl_dial                           -0.608437
# s1hr                                0.8
# s1hr_dial                           0.970938
# s1top                               0.8
# s1top_dial                          -0.461562
# s2bot                               0.45
# s2bot_dial                          1.36109
# s2hl                                0.45
# s2hl_dial                           -0.83375
# s2hr                                0.45
# s2hr_dial                           -0.118594
# s2top                               0.45
# s2top_dial                          1.44734
# w2theta                             32
# w2theta_dial                        32
# waxsch                              19.2605
# waxsch_dial                         -32.7355
# waxsh                               137.085
# waxsh_dial                          -43.5338
# waxsth                              26.0607
# waxsth_dial                         -19.4086
# waxsz                               67.0407
# waxsz_dial                          -23.7954
# wind                                65.9854
# wind_dial                           66.0041
# wpsi                                124
# wpsi_dial                           124
# wstod                               115
# wstod_dial                          115
# x                                   0
# x_dial                              1.00969
# z                                   0
# z_dial                              13.3172
# CountCutoff                         6807993
# DetectorModel                       Dectris EIGER2 Si 500K, S/N E-01-0554
# ThresholdSetting                    4023.88989258
# Saturation                          0
# FlatField                           Corrected
# BackgroundReductionExtra            0.02
# BackgroundCorrectionConstant        0.0026712
# Detector                            0
# Monitor                             0
# Pil_Roi0                            0
# SumForIntensity1                    3.09892e+08
# TransmittedFlux                     860811
# det                                 0
# mon                                 0
# pilai0                              3.09892e+08
# pilai1                              783610
# pilct0                              5.3608e+08
# pilct1                              783610
# pilroi0                             0
# pilroi1                             0
# sec                                 1
# title                               20251028_20perc_iodine_1.23mg_1_00713.edf
# usaxs0                              0
# Operation                           Azimuthal average I(q)
# Error_model                         ErrorModel.poisson
# Geometrical_correction              True
# Transmission_correction             True
# Thickness_correction                False
# Binning mode                        Uniform
# Binning factor                      1.0
# Psi                                 0.0
# Omega                               0.2499
# MaskInvalidPixels                   True
# DetectorEdge                        3
# MaskFiles                           ['WAXS_corrected.edf']
################################################################################
    q(A⁻¹)                Intensity(a.u.)            Sigma_I(a.u.)            
       0.693100            -2.3586133e-05                         0           
       0.695741              0.0139090576             0.00639464937           
       0.698381              0.0125778939              0.0074487724           
       0.701021             0.00875669499             0.00878623948           
       0.703662             0.00559939774             0.00405548731           
       0.706302             0.00164926769             0.00170402169           
       0.708942              0.0142165313             0.00645724731           
       0.711583             0.00658056092             0.00380423948           
       0.714223             0.00578683706             0.00411866945           
       0.716864             0.00622762516             0.00279555684           
       0.719504             0.00579356415             0.00290969763           
       0.722144             0.00372886766             0.00216177382           
       0.724785               0.003916769             0.00176732797           
       0.727425              0.0102140759              0.0038609374           
       0.730065             0.00865458951             0.00251395601           
       0.732706              0.0107130242             0.00234876315           
       0.735346             0.00522358051             0.00213791995           
       0.737987             0.00564668573             0.00157072868           
       0.740627             0.00581173913             0.00237762798           
       0.743267             0.00522797698             0.00151042735           
       0.745908             0.00723757901             0.00192813923           
       0.748548              0.0100610012              0.0020954474           
       0.751189               0.010368654             0.00286638079           
       0.753829             0.00601307043             0.00200653132           
       0.756469              0.0112824241             0.00221631944           
       0.759110             0.00820645307             0.00199195456           
       0.761750             0.00902158839             0.00184673189           
       0.764390             0.00738376286             0.00174866525           
       0.767031             0.00650225517             0.00142101603           
       0.769671             0.00530271036               0.001600776           
       0.772312             0.00555984899             0.00124785597           
       0.774952             0.00921165013             0.00216900921           
       0.777592             0.00621126574             0.00129729853           
       0.780233             0.00311496546             0.00110840955           
       0.782873             0.00759850902             0.00165569548           
       0.785513              0.0053517499             0.00148548391           
       0.788154             0.00866957005             0.00158162199           
       0.790794             0.00781313569             0.00179504622           
       0.793435             0.00664801158             0.00148750712           
       0.796075             0.00925936335             0.00169110236           
       0.798715             0.00512898143             0.00148733104           
       0.801356             0.00853801902             0.00165160637           
       0.803996             0.00729679685             0.00155663516           
       0.806637             0.00629601761             0.00115071002           
       0.809277             0.00937368519             0.00151974052           
       0.811917             0.00775915417             0.00129258496           
       0.814558              0.0101384607             0.00153563421           
       0.817198              0.0105376403             0.00148736819           
       0.819838             0.00577645844             0.00111452508           
       0.822479             0.00832694748             0.00157134313           
       0.825119             0.00705071948             0.00123066134           
       0.827760             0.00752613814             0.00128795524           
       0.830400             0.00718709659             0.00118458607           
       0.833040             0.00726964951             0.00124818879           
       0.835681             0.00749127073             0.00144044399           
       0.838321             0.00917793603             0.00133821182           
       0.840961             0.00783881897             0.00134748412           
       0.843602             0.00812266543             0.00125787157           
       0.846242             0.00561859454              0.0010460106           
       0.848883             0.00875414618             0.00133615214           
       0.851523             0.00674331138             0.00115812941           
       0.854163             0.00448744908             0.00100470699           
       0.856804             0.00762801445             0.00117779945           
       0.859444             0.00680029851             0.00108960735           
       0.862085             0.00892603981             0.00130109042           
       0.864725             0.00855593693             0.00130363469           
       0.867365             0.00701242263             0.00109438986           
       0.870006             0.00601433377            0.000965805481           
       0.872646             0.00872010876             0.00121950225           
       0.875286             0.00754940106              0.0010916437           
       0.877927             0.00539391849            0.000890395966           
       0.880567             0.00585054196            0.000960721069           
       0.883208             0.00864571639             0.00115688162           
       0.885848             0.00695844821             0.00107762551           
       0.888488              0.0059906006             0.00093782349           
       0.891129             0.00754196048             0.00108046383           
       0.893769             0.00678368424            0.000980673997           
       0.896410             0.00748520494            0.000960445796           
       0.899050             0.00909192184             0.00116408366           
       0.901690             0.00688604741             0.00110353242           
       0.904331             0.00625447069            0.000932397464           
       0.906971             0.00787212997             0.00111282358           
       0.909611             0.00819797237             0.00103377859           
       0.912252             0.00709004083            0.000993012785           
       0.914892             0.00960809221             0.00126323604           
       0.917533             0.00680449325             0.00100566486           
       0.920173             0.00689420851            0.000939190192           
       0.922813             0.00700185004            0.000993238552           
       0.925454             0.00798660523            0.000955209654           
       0.928094             0.00608339847            0.000890005954           
       0.930734             0.00829239396             0.00111871224           
       0.933375              0.0063232879            0.000967296003           
       0.936015             0.00791384399            0.000982810504           
       0.938656             0.00802311665             0.00106157743           
       0.941296             0.00703655579            0.000900990812           
       0.943936             0.00721610397            0.000894762829           
       0.946577             0.00688215511            0.000868036619           
       0.949217             0.00830804855            0.000877041006           
       0.951858             0.00780963226            0.000890122067           
       0.954498             0.00747306597             0.00100785501           
       0.957138             0.00632697851            0.000878543579           
       0.959779             0.00628467357            0.000863163104           
       0.962419             0.00676405366            0.000889521795           
       0.965059             0.00581938042             0.00086775906           
       0.967700             0.00731361833            0.000996347966           
       0.970340             0.00668437758            0.000842888407           
       0.972981             0.00738994669            0.000807466219           
       0.975621             0.00799485534            0.000893470677           
       0.978261              0.0062942694            0.000753271701           
       0.980902             0.00782597755             0.00100494637           
       0.983542             0.00809737904            0.000905245443           
       0.986182             0.00889971104            0.000931756383           
       0.988823             0.00838575132            0.000878224236           
       0.991463             0.00679634157            0.000843517268           
       0.994104             0.00805186803            0.000895651035           
       0.996744             0.00778954479            0.000898552206           
       0.999384             0.00646758495            0.000732248246           
       1.002025             0.00886487969            0.000956839942           
       1.004665             0.00855588182            0.000859058349           
       1.007306             0.00810647413            0.000831912418           
       1.009946             0.00798884028            0.000842255924           
       1.012586             0.00808965727             0.00082546747           
       1.015227             0.00758888436             0.00085892398           
       1.017867             0.00970519243            0.000933517523           
       1.020507             0.00833829113            0.000838145632           
       1.023148             0.00745443151            0.000855107417           
       1.025788             0.00824952888            0.000824821496           
       1.028429             0.00888339534            0.000896720513           
       1.031069             0.00720723689            0.000760080117           
       1.033709              0.0079524698            0.000848711837           
       1.036350             0.00854831242            0.000790299824           
       1.038990             0.00787194787            0.000772326819           
       1.041630             0.00734241014            0.000777978953           
       1.044271             0.00881885021            0.000801856286           
       1.046911             0.00686270545            0.000744046568           
       1.049552             0.00900540668            0.000895473237           
       1.052192             0.00706066258            0.000724026972           
       1.054832             0.00870787398            0.000811373718           
       1.057473             0.00750963937            0.000742776784           
       1.060113             0.00894503529            0.000790615875           
       1.062754             0.00727590649            0.000728008245           
       1.065394              0.0067528757            0.000741512211           
       1.068034              0.0104392991            0.000838852391           
       1.070675             0.00926335023            0.000824269787           
       1.073315              0.0082318095            0.000788159005           
       1.075955             0.00752391752            0.000711355172           
       1.078596             0.00744480662             0.00075204425           
       1.081236             0.00814643042            0.000753301346           
       1.083877             0.00738743535            0.000710916245           
       1.086517             0.00865187267            0.000824973465           
       1.089157             0.00668971716             0.00075270326           
       1.091798             0.00851750099            0.000744620838           
       1.094438             0.00899706268            0.000762825992           
       1.097078             0.00898359348            0.000731082316           
       1.099719             0.00890341321            0.000787240473           
       1.102359               0.010196392            0.000788979536           
       1.105000             0.00978336619            0.000864179842           
       1.107640             0.00851329735            0.000770798099           
       1.110280             0.00834491284            0.000696304511           
       1.112921             0.00818197266            0.000740643176           
       1.115561             0.00934514039            0.000752292606           
       1.118202             0.00911991628            0.000743872208           
       1.120842             0.00837318241            0.000749123766           
       1.123482             0.00842378834            0.000748102376           
       1.126123             0.00909643303            0.000745653998           
       1.128763             0.00873185776            0.000735567637           
       1.131403             0.00827612631             0.00069003825           
       1.134044             0.00755731873             0.00067851567           
       1.136684             0.00893836114            0.000786742846           
       1.139325             0.00887616136            0.000722220559           
       1.141965             0.00897983735            0.000731228499           
       1.144605             0.00769019899            0.000645222803           
       1.147246             0.00905488575            0.000716528629           
       1.149886             0.00951339113            0.000731838532           
       1.152527             0.00891089985            0.000718585432           
       1.155167             0.00806950658            0.000650415951           
       1.157807             0.00948011253            0.000755860062           
       1.160448             0.00805589608            0.000680417091           
       1.163088             0.00992855507            0.000720514442           
       1.165728             0.00760035443            0.000647244169           
       1.168369              0.0087410819            0.000700531494           
       1.171009              0.0100775326            0.000729970948           
       1.173650             0.00929892649            0.000719603312           
       1.176290             0.00935555093             0.00070535167           
       1.178930             0.00929821796            0.000689187351           
       1.181571              0.0091293127            0.000696441135           
       1.184211             0.00859533892            0.000678162822           
       1.186851               0.010126766            0.000719676092           
       1.189492             0.00909544954            0.000677457687           
       1.192132             0.00930530838            0.000677540315           
       1.194773              0.0103581576            0.000717966903           
       1.197413             0.00840868431            0.000619807574           
       1.200053             0.00965940646            0.000681184846           
       1.202694             0.00850355378            0.000607777156           
       1.205334             0.00911351776            0.000678078247           
       1.207975              0.0094584758            0.000659380552           
       1.210615             0.00983583366            0.000741777319           
       1.213255             0.00973005119            0.000660662948           
       1.215896             0.00999320087            0.000681668516           
       1.218536             0.00951186164            0.000639473141           
       1.221176             0.00986726685            0.000708107984           
       1.223817             0.00890212531            0.000631368011           
       1.226457             0.00950204568            0.000665436671           
       1.229098             0.00992607347            0.000680089011           
       1.231738              0.0106327627            0.000707346606           
       1.234378             0.00995967349            0.000643276993           
       1.237019              0.0103159555             0.00067464329           
       1.239659              0.0107092569            0.000681395757           
       1.242299             0.00957290273            0.000636045903           
       1.244940              0.0106254436            0.000651715092           
       1.247580             0.00840264525            0.000597275519           
       1.250221              0.0110187626            0.000679743491           
       1.252861              0.0098330353            0.000611310119           
       1.255501              0.0105712514            0.000688231218           
       1.258142             0.00988613623            0.000625409071           
       1.260782             0.00961723188            0.000630191652           
       1.263423              0.0103244661            0.000627413232           
       1.266063              0.0094835944            0.000616336772           
       1.268703             0.00979719798            0.000621246136           
       1.271344              0.0106898847              0.0006709249           
       1.273984             0.00993606016            0.000624716437           
       1.276624              0.0110662763            0.000646904364           
       1.279265             0.00984527735            0.000620306331           
       1.281905              0.0107564233            0.000651252463           
       1.284546              0.0101954444            0.000612859781           
       1.287186              0.0110181678            0.000625070083           
       1.289826              0.0104279796             0.00064088629           
       1.292467              0.0116077377            0.000661274956           
       1.295107              0.0109521894            0.000635950157           
       1.297747              0.0112589173            0.000617014207           
       1.300388              0.0106310919            0.000653600808           
       1.303028              0.0116465748            0.000653087678           
       1.305669             0.00985678258            0.000615119825           
       1.308309              0.0112540942            0.000650802827           
       1.310949              0.0111792641             0.00064798372           
       1.313590              0.0104928654             0.00060815219           
       1.316230             0.00920278392            0.000607779112           
       1.318871              0.0113479055            0.000660988661           
       1.321511              0.0107952449            0.000632742635           
       1.324151              0.0100897025             0.00059358113           
       1.326792              0.0110717037            0.000625640493           
       1.329432              0.0101205216             0.00059394123           
       1.332072              0.0113120975            0.000618575288           
       1.334713              0.0117062203            0.000649457598           
       1.337353              0.0120028354              0.0006306843           
       1.339994               0.010934022            0.000631686047           
       1.342634              0.0116299118            0.000624726155           
       1.345274              0.0120622833             0.00065844144           
       1.347915              0.0099440938            0.000581330763           
       1.350555               0.010132381            0.000597085854           
       1.353195              0.0114505583            0.000637855306           
       1.355836              0.0116221561             0.00063259657           
       1.358476              0.0100205006            0.000570447026           
       1.361117              0.0109102771            0.000596052088           
       1.363757               0.012054941            0.000645671215           
       1.366397              0.0120055758            0.000624849096           
       1.369038              0.0115162543            0.000618076529           
       1.371678              0.0112954304            0.000606725543           
       1.374319              0.0108848932             0.00059046904           
       1.376959              0.0108928494            0.000584744554           
       1.379599               0.011215246            0.000635875255           
       1.382240              0.0129650387            0.000642558872           
       1.384880              0.0106750357            0.000617589378           
       1.387520              0.0108301128            0.000590788708           
       1.390161              0.0114101372            0.000575936898           
       1.392801              0.0120453017            0.000616546202           
       1.395442              0.0109727733            0.000596494325           
       1.398082              0.0106309196            0.000549820723           
       1.400722              0.0100699714            0.000560524136           
       1.403363               0.011884825            0.000640986424           
       1.406003              0.0112618213            0.000583942753           
       1.408644               0.011380411            0.000614930339           
       1.411284              0.0114155499            0.000583182731           
       1.413924              0.0117817904            0.000590267465           
       1.416565              0.0114930182            0.000580698802           
       1.419205              0.0117088819            0.000611423802           
       1.421845                0.01185132            0.000614770339           
       1.424486               0.011695805            0.000587045628           
       1.427126              0.0113684952            0.000601233258           
       1.429767              0.0104024417            0.000541118857           
       1.432407              0.0108482066            0.000578299644           
       1.435047              0.0104612853            0.000533345733           
       1.437688              0.0104502782            0.000541035332           
       1.440328              0.0116073494            0.000581954466           
       1.442968              0.0105005896            0.000565916719           
       1.445609              0.0115030137            0.000573523556           
       1.448249              0.0106044965            0.000564611361           
       1.450890              0.0107150182            0.000563841617           
       1.453530              0.0107013322             0.00058951489           
       1.456170              0.0113101037            0.000588186683           
       1.458811             0.00993997004            0.000527269716           
       1.461451              0.0100513539            0.000531606573           
       1.464092              0.0109297387            0.000557972827           
       1.466732              0.0100847899            0.000531365626           
       1.469372              0.0110143084            0.000542317975           
       1.472013              0.0118072919            0.000605590051           
       1.474653               0.010810253             0.00057051853           
       1.477293              0.0102571256            0.000567444007           
       1.479934              0.0102940065            0.000542432699           
       1.482574              0.0108493774            0.000538687484           
       1.485215              0.0102985414            0.000534609614           
       1.487855              0.0110126763            0.000560127563           
       1.490495              0.0106566956            0.000548970953           
       1.493136              0.0106284976            0.000540729456           
       1.495776              0.0101573201            0.000526200984           
       1.498416              0.0113714948            0.000574979365           
       1.501057              0.0113805948            0.000562532619           
       1.503697              0.0118543467            0.000561295641           
       1.506338              0.0111097528            0.000553311246           
       1.508978              0.0105114118            0.000532912248           
       1.511618              0.0106547913            0.000571406622           
       1.514259              0.0105160147            0.000548061878           
       1.516899              0.0117115324            0.000563147276           
       1.519540              0.0115506674            0.000568284905           
       1.522180              0.0117694592             0.00057868101           
       1.524820              0.0105746559            0.000545444594           
       1.527461             0.00979554162            0.000527563004           
       1.530101              0.0102190474             0.00053345776           
       1.532741              0.0100694548            0.000526465714           
       1.535382              0.0105648024            0.000547940915           
       1.538022              0.0109445335            0.000525384164           
       1.540663              0.0113691676            0.000575941052           
       1.543303              0.0104113441            0.000511748571           
       1.545943              0.0110874941            0.000558959711           
       1.548584              0.0104207229            0.000551619286           
       1.551224              0.0108354435            0.000520074032           
       1.553864              0.0106105489            0.000543822356           
       1.556505              0.0107054263            0.000527690021           
       1.559145              0.0102407011             0.00052243166           
       1.561786              0.0100072553            0.000516840429           
       1.564426             0.00991621437            0.000498481502           
       1.567066              0.0107627597            0.000544151241           
       1.569707              0.0101043786            0.000517774187           
       1.572347              0.0108161659            0.000553432439           
       1.574988              0.0108006264            0.000526396346           
       1.577628              0.0102230987            0.000534024644           
       1.580268              0.0107231275            0.000529915716           
       1.582909             0.00930529552            0.000523239739           
       1.585549             0.00903730419            0.000500679742           
       1.588189              0.0104425945            0.000526454895           
       1.590830             0.00986585993             0.00051106837           
       1.593470             0.00995822194            0.000533785759           
       1.596111             0.00998187983            0.000521759398           
       1.598751             0.00938598579            0.000490244593           
       1.601391             0.00928689017            0.000498408665           
       1.604032              0.0102519804            0.000534613245           
       1.606672             0.00901098131            0.000486975506           
       1.609312             0.00921237863            0.000513994898           
       1.611953             0.00927444315            0.000504667498           
       1.614593             0.00991033726            0.000511728466           
       1.617234             0.00900466778            0.000505529919           
       1.619874             0.00943089673            0.000515312336           
       1.622514             0.00922393879            0.000502674731           
       1.625155             0.00964599531            0.000517083186           
       1.627795             0.00918862796             0.00049231005           
       1.630436             0.00999311089            0.000510728436           
       1.633076             0.00888960198            0.000488022404           
       1.635716             0.00948418745            0.000496236031           
       1.638357             0.00923324074            0.000490917525           
       1.640997              0.0091419874             0.00050328282           
       1.643637              0.0083924726            0.000469245275           
       1.646278               0.009608735            0.000517873443           
       1.648918              0.0099135564            0.000527458613           
       1.651559             0.00866345577            0.000496909137           
       1.654199             0.00949966792            0.000506074493           
       1.656839             0.00931530884            0.000501314696           
       1.659480             0.00959366107            0.000527853993           
       1.662120             0.00878677914            0.000475785745           
       1.664761             0.00934961048            0.000509801341           
       1.667401             0.00888810829            0.000475083006           
       1.670041             0.00898479315             0.00048494323           
       1.672682             0.00937002554            0.000493194862           
       1.675322             0.00876388306            0.000473908723           
       1.677962             0.00902652111            0.000475651829           
       1.680603             0.00847164393            0.000462218365           
       1.683243             0.00910730092            0.000500003474           
       1.685884             0.00848601856            0.000486211796           
       1.688524             0.00935653857            0.000500672731           
       1.691164             0.00795046674            0.000461627005           
       1.693805             0.00883255683            0.000491906992           
       1.696445             0.00822642991            0.000477482454           
       1.699085             0.00806212643            0.000456851158           
       1.701726             0.00864539431             0.00045573812           
       1.704366             0.00990126808            0.000513797045           
       1.707007             0.00848423325            0.000465009762           
       1.709647             0.00902368683            0.000484981101           
       1.712287             0.00952383999            0.000502577106           
       1.714928             0.00852052194            0.000479200492           
       1.717568             0.00846432422            0.000449917652           
       1.720209             0.00867402231            0.000477059368           
       1.722849             0.00799937844            0.000455776334           
       1.725489             0.00891690806            0.000481609798           
       1.728130              0.0086337829            0.000503625246           
       1.730770             0.00911725362            0.000491518281           
       1.733410             0.00857490439             0.00046918205           
       1.736051             0.00907903786            0.000486137445           
       1.738691             0.00871631563            0.000466671702           
       1.741332             0.00873231477            0.000480758108           
       1.743972             0.00872387292            0.000496224355           
       1.746612             0.00902808709            0.000484738849           
       1.749253             0.00938462655            0.000503977888           
       1.751893             0.00818942611            0.000467336996           
       1.754533              0.0085693361             0.00047760762           
       1.757174             0.00896341696            0.000483891898           
       1.759814             0.00886122576            0.000473832654           
       1.762455             0.00807970128            0.000460763398           
       1.765095             0.00900323937            0.000465285901           
       1.767735             0.00845786656            0.000464885903           
       1.770376              0.0087845723            0.000475028521           
       1.773016             0.00754051509             0.00043716066           
       1.775657             0.00945713114            0.000482531839           
       1.778297             0.00851124633            0.000453823522           
       1.780937             0.00898137339            0.000492062066           
       1.783578             0.00958157163            0.000495529614           
       1.786218             0.00830961535            0.000481592466           
       1.788858             0.00833211376            0.000458015425           
       1.791499             0.00808209056            0.000446025038           
       1.794139             0.00861638771            0.000456795815           
       1.796780             0.00856201015            0.000453156917           
       1.799420             0.00992857042            0.000485280013           
       1.802060             0.00848378876            0.000452207543           
       1.804701              0.0096102886            0.000461872311           
       1.807341             0.00882043254            0.000464955598           
       1.809981             0.00882640447            0.000466663678           
       1.812622             0.00940377022            0.000473013074           
       1.815262             0.00930567667             0.00048053488           
       1.817903             0.00908327498            0.000467723438           
       1.820543             0.00855744677             0.00046105752           
       1.823183             0.00834862841            0.000455147072           
       1.825824             0.00902500057            0.000452100128           
       1.828464             0.00831461398            0.000452403681           
       1.831105             0.00868841926            0.000449675309           
       1.833745             0.00727964072            0.000420398528           
       1.836385             0.00852832962            0.000468013878           
       1.839026             0.00744373503            0.000435860881           
       1.841666             0.00852921298            0.000464904987           
       1.844306             0.00875876397            0.000458264834           
       1.846947             0.00807219153            0.000443793739           
       1.849587             0.00737361572            0.000468371131           
       1.852228             0.00907291982            0.000469797683           
       1.854868             0.00817157583             0.00047097618           
       1.857508             0.00888411925            0.000486264633           
       1.860149             0.00894093872            0.000496680078           
       1.862789             0.00804916419             0.00045487488           
       1.865429             0.00845557319            0.000486659197           
       1.868070             0.00838663551             0.00047821147           
       1.870710             0.00851552757            0.000470762851           
       1.873351             0.00889450497            0.000487072098           
       1.875991             0.00826311546            0.000477127921           
       1.878631             0.00835019428            0.000470449303           
       1.881272             0.00793369815             0.00045549403           
       1.883912             0.00787827634            0.000472378181           
       1.886553             0.00754176375            0.000457012335           
       1.889193             0.00885093028            0.000494246067           
       1.891833             0.00799893962            0.000487963997           
       1.894474             0.00758149832            0.000470923386           
       1.897114             0.00800060979            0.000468129117           
       1.899754             0.00786724093            0.000466153197           
       1.902395             0.00798347308            0.000460403159           
       1.905035             0.00785354709            0.000483659784           
       1.907676             0.00845333551            0.000472937575           
       1.910316             0.00796723996            0.000471329415           
       1.912956             0.00790912817            0.000459275949           
       1.915597             0.00873361669            0.000485318577           
       1.918237             0.00903453922            0.000509777741           
       1.920878             0.00824005325             0.00048485444           
       1.923518             0.00831001149            0.000487114895           
       1.926158             0.00833974725            0.000481653303           
       1.928799             0.00781870042            0.000460966097           
       1.931439             0.00800341854             0.00047861217           
       1.934079             0.00774767623            0.000490905071           
       1.936720             0.00793820058            0.000460396338           
       1.939360             0.00965688203             0.00054174754           
       1.942001             0.00833385751            0.000461273247           
       1.944641             0.00744972582            0.000444709944           
       1.947281             0.00874693309            0.000477433541           
       1.949922             0.00808506092            0.000474121668           
       1.952562             0.00830806082            0.000495680939           
       1.955202             0.00849044979            0.000500481491           
       1.957843             0.00819188179            0.000478854303           
       1.960483             0.00846982683            0.000509063902           
       1.963124             0.00763050489            0.000473270326           
       1.965764             0.00735764354            0.000438254722           
       1.968404              0.0077287853            0.000444928231           
       1.971045             0.00836242375            0.000471856623           
       1.973685             0.00757813666            0.000471161469           
       1.976326             0.00751394656            0.000462713722           
       1.978966             0.00856784227            0.000498435236           
       1.981606             0.00843061411            0.000504739095           
       1.984247             0.00804618664            0.000489855161           
       1.986887             0.00787630806            0.000478850815           
       1.989527             0.00717589794            0.000452141697           
       1.992168             0.00777766904             0.00048841022           
       1.994808             0.00842288763            0.000506086646           
       1.997449             0.00749132072            0.000467478685           
       2.000089             0.00796361564            0.000480078776           
       2.002729             0.00831689455            0.000490905901           
       2.005370              0.0078161669            0.000470778229           
       2.008010              0.0072244392            0.000472360568           
       2.010650             0.00789490356            0.000497477661           
       2.013291             0.00866097361            0.000499923385           
       2.015931             0.00740783175            0.000459076187           
       2.018572              0.0078640394             0.00050591929           
       2.021212             0.00771313707            0.000492039679           
       2.023852             0.00848164649            0.000488341564           
       2.026493             0.00796959009            0.000494520172           
       2.029133              0.0072138776            0.000461021849           
       2.031774             0.00802208735            0.000510215989           
       2.034414             0.00846156086            0.000482157595           
       2.037054             0.00797066247            0.000479823732           
       2.039695             0.00751403401            0.000462358247           
       2.042335             0.00734458742             0.00047504312           
       2.044975             0.00794849807            0.000488194484           
       2.047616             0.00835920304            0.000499404684           
       2.050256             0.00756145986            0.000479472437           
       2.052897             0.00800748734            0.000502507461           
       2.055537             0.00785729044            0.000481078073           
       2.058177             0.00767748465            0.000465683589           
       2.060818             0.00731585674            0.000476211845           
       2.063458              0.0078243628            0.000513217203           
       2.066098              0.0078699232            0.000485543231           
       2.068739             0.00749984281            0.000481357205           
       2.071379             0.00857817883            0.000528226643           
       2.074020             0.00806018371            0.000500901953           
       2.076660             0.00669725317            0.000460283402           
       2.079300             0.00803378284            0.000516475607           
       2.081941             0.00790398535            0.000469056566           
       2.084581                0.00790429            0.000495103325           
       2.087222             0.00668176192            0.000439004632           
       2.089862             0.00786128937            0.000518631896           
       2.092502             0.00775023637            0.000499175963           
       2.095143             0.00702857172            0.000490888317           
       2.097783             0.00847781427            0.000521965709           
       2.100423             0.00646137161            0.000439092066           
       2.103064             0.00785585848            0.000502382393           
       2.105704             0.00680479057            0.000465252214           
       2.108345             0.00719304369            0.000459557591           
       2.110985             0.00692494833            0.000481606724           
       2.113625             0.00869608501            0.000544401823           
       2.116266             0.00736775362            0.000508210395           
       2.118906             0.00813284254            0.000497607575           
       2.121546             0.00738025308            0.000464974598           
       2.124187             0.00770705308            0.000498768841           
       2.126827             0.00706082634            0.000482728683           
       2.129468             0.00727437321            0.000491225664           
       2.132108             0.00741362322            0.000482477857           
       2.134748             0.00740447164             0.00048030922           
       2.137389             0.00711565353            0.000491212045           
       2.140029             0.00720978807            0.000442662306           
       2.142670             0.00720227879            0.000472836313           
       2.145310             0.00767178763            0.000474983869           
       2.147950             0.00819678625            0.000505338927           
       2.150591             0.00675678441            0.000454171256           
       2.153231             0.00705994277            0.000477871317           
       2.155871              0.0081519019            0.000496074462           
       2.158512             0.00730367475            0.000489949197           
       2.161152             0.00693814373            0.000462566761           
       2.163793             0.00800982201            0.000494771465           
       2.166433             0.00728599323            0.000484577769           
       2.169073             0.00706127843            0.000466425887           
       2.171714             0.00710692508            0.000464433024           
       2.174354             0.00772590774            0.000505981785           
       2.176995             0.00828244552            0.000521684767           
       2.179635             0.00742218967            0.000521858586           
       2.182275             0.00771050113            0.000502195828           
       2.184916             0.00736384917            0.000474026881           
       2.187556             0.00690222006            0.000454328624           
       2.190196             0.00692641819            0.000475598794           
       2.192837             0.00701357631            0.000475977896           
       2.195477             0.00768819786            0.000475111884           
       2.198118             0.00790697133            0.000494170344           
       2.200758             0.00737894355            0.000489767946           
       2.203398             0.00695011582             0.00047836431           
       2.206039             0.00739692882            0.000467057382           
       2.208679             0.00704782333            0.000466512674           
       2.211319              0.0078278214            0.000494485252           
       2.213960             0.00701174731            0.000474270598           
       2.216600             0.00659861334             0.00047594914           
       2.219241             0.00694270544            0.000466588142           
       2.221881             0.00743922977            0.000483977679           
       2.224521             0.00722016663              0.0004826412           
       2.227162             0.00697530932            0.000464888385           
       2.229802              0.0070795594            0.000483010716           
       2.232443             0.00657230359            0.000458044609           
       2.235083             0.00825975554             0.00052863725           
       2.237723             0.00729475532            0.000476749469           
       2.240364             0.00748882898            0.000494949982           
       2.243004             0.00711894922            0.000478720069           
       2.245644              0.0066453405            0.000467151486           
       2.248285             0.00707490185            0.000472357477           
       2.250925              0.0074378103            0.000487262869           
       2.253566              0.0075753567            0.000525715907           
       2.256206             0.00666253573            0.000483167384           
       2.258846             0.00632030191             0.00044766544           
       2.261487             0.00780048891            0.000521995063           
       2.264127             0.00703713179            0.000478832268           
       2.266767             0.00827511768            0.000533079519           
       2.269408             0.00728322334             0.00050215933           
       2.272048             0.00664057836             0.00047663129           
       2.274689              0.0074527672            0.000511591604           
       2.277329             0.00707611297            0.000469366468           
       2.279969             0.00723898384            0.000505330819           
       2.282610             0.00693523202            0.000480858627           
       2.285250             0.00693264306            0.000460161135           
       2.287891             0.00721069733             0.00050315883           
       2.290531             0.00653225871             0.00048534141           
       2.293171             0.00787270988            0.000519011591           
       2.295812             0.00661026611            0.000473669227           
       2.298452             0.00701397611             0.00051023374           
       2.301092             0.00778546679             0.00049946207           
       2.303733             0.00786712468            0.000522332915           
       2.306373             0.00784727642            0.000529889172           
       2.309014             0.00683962041            0.000485049139           
       2.311654             0.00768561593            0.000536563691           
       2.314294             0.00719389341            0.000478262965           
       2.316935              0.0071178655            0.000477694453           
       2.319575              0.0071090562            0.000500203403           
       2.322215             0.00676727721            0.000508610973           
       2.324856             0.00772475848            0.000499601742           
       2.327496             0.00737687928            0.000519133872           
       2.330137             0.00679156367            0.000476656921           
       2.332777             0.00696535791            0.000497732852           
       2.335417              0.0068676433            0.000479476278           
       2.338058             0.00689126558            0.000494647803           
       2.340698             0.00628370663             0.00046862796           
       2.343339             0.00708354495            0.000508509406           
       2.345979             0.00742163522            0.000492437497           
       2.348619             0.00747391001            0.000512232348           
       2.351260             0.00741170164             0.00050712419           
       2.353900             0.00692893085            0.000488776749           
       2.356540             0.00814848256            0.000529296309           
       2.359181             0.00738287838            0.000496754351           
       2.361821             0.00730819267            0.000477418189           
       2.364462             0.00735113823            0.000500784633           
       2.367102             0.00699576588            0.000502042829           
       2.369742             0.00739894441            0.000543448782           
       2.372383             0.00645323864            0.000459568098           
       2.375023             0.00793506028            0.000535708298           
       2.377663             0.00701303269             0.00048153824           
       2.380304             0.00758564031            0.000509161556           
       2.382944             0.00703817101            0.000467132348           
       2.385585             0.00715920516            0.000502470208           
       2.388225               0.007562029            0.000513986298           
       2.390865             0.00691732525            0.000486538516           
       2.393506             0.00726942662            0.000489357734           
       2.396146             0.00758268226            0.000540395804           
       2.398787             0.00639393487            0.000457316167           
       2.401427             0.00682598663            0.000456085456           
       2.404067             0.00624575724            0.000446001988           
       2.406708             0.00718747714            0.000472708169           
       2.409348             0.00723468915            0.000503043549           
       2.411988             0.00678606467            0.000477345326           
       2.414629             0.00724568952            0.000508607534           
       2.417269             0.00666980426            0.000493674401           
       2.419910             0.00734552586            0.000519280605           
       2.422550             0.00725894738            0.000493879112           
       2.425190             0.00721432053            0.000518997407           
       2.427831             0.00682339686            0.000501902753           
       2.430471             0.00761989692            0.000505297163           
       2.433112             0.00730661648            0.000481818118           
       2.435752             0.00704645388            0.000500753604           
       2.438392             0.00728358369            0.000491394852           
       2.441033             0.00809160793            0.000548907247           
       2.443673             0.00682447508            0.000504486935           
       2.446313             0.00723624831            0.000519941848           
       2.448954             0.00721248721            0.000494243861           
       2.451594             0.00770106024            0.000549132152           
       2.454235              0.0067591094            0.000482688981           
       2.456875             0.00768253093             0.00053846227           
       2.459515             0.00763043223            0.000550525398           
       2.462156             0.00853846083            0.000549830272           
       2.464796             0.00796694525            0.000524258153           
       2.467436             0.00707730231            0.000510978958           
       2.470077             0.00746082972            0.000497264992           
       2.472717             0.00751990823            0.000501392462           
       2.475358             0.00890745987            0.000551383083           
       2.477998             0.00761835772            0.000501329405           
       2.480638             0.00761391402            0.000510088733           
       2.483279             0.00746057769            0.000527728455           
       2.485919             0.00734555395            0.000504651215           
       2.488560             0.00703471507            0.000492478321           
       2.491200             0.00750385175            0.000523759319           
       2.493840             0.00680045137             0.00052759167           
       2.496481             0.00807387551            0.000565466954           
       2.499121             0.00804419879            0.000548995176           
       2.501761             0.00735288811            0.000531829605           
       2.504402             0.00743185654            0.000526866232           
       2.507042             0.00674204615            0.000498102096           
       2.509683             0.00630791253            0.000474434819           
       2.512323             0.00775950116            0.000552640449           
       2.514963             0.00683187505            0.000512149589           
       2.517604             0.00719322708            0.000545307201           
       2.520244              0.0072649695            0.000513769559           
       2.522884             0.00735998601            0.000524513651           
       2.525525             0.00877714577            0.000579290652           
       2.528165             0.00804156789            0.000545842398           
       2.530806             0.00843934778            0.000568926263           
       2.533446             0.00749019564            0.000524539304           
       2.536086             0.00789883427            0.000533836611           
       2.538727             0.00644245755            0.000462518183           
       2.541367             0.00697332744            0.000485937182           
       2.544008             0.00667047422            0.000490835695           
       2.546648             0.00677447676            0.000503131854           
       2.549288              0.0070591115            0.000524057717           
       2.551929             0.00661915872            0.000499375241           
       2.554569             0.00656930272            0.000479290958           
       2.557209             0.00716439229            0.000505125784           
       2.559850             0.00737775074             0.00051423807           
       2.562490             0.00661777964            0.000503374754           
       2.565131             0.00802627654            0.000574786009           
       2.567771              0.0083370516            0.000564806964           
       2.570411             0.00756309781            0.000532131591           
       2.573052             0.00752186591            0.000537362256           
       2.575692             0.00751158346             0.00053374307           
       2.578332              0.0069196381            0.000514399347           
       2.580973             0.00766495863            0.000536243044           
       2.583613             0.00736687749             0.00051319501           
       2.586254             0.00662866887            0.000486127151           
       2.588894             0.00796471617            0.000553360821           
       2.591534             0.00688279123            0.000532506158           
       2.594175             0.00709667255            0.000530513003           
       2.596815             0.00766458713            0.000554582575           
       2.599456             0.00638264733            0.000479916725           
       2.602096             0.00783671609            0.000535827656           
       2.604736             0.00568110444            0.000467038119           
       2.607377             0.00724094856            0.000513375436           
       2.610017             0.00685094478            0.000490620063           
       2.612657             0.00644299348            0.000506072784           
       2.615298             0.00613455716            0.000482114867           
       2.617938             0.00706759185            0.000553572724           
       2.620579             0.00662873043            0.000514660437           
       2.623219             0.00581786647            0.000481468593           
       2.625859             0.00696393096            0.000512159094           
       2.628500             0.00758922121            0.000531153769           
       2.631140             0.00746766889            0.000535001372           
       2.633780             0.00616838914            0.000485814582           
       2.636421             0.00654858991            0.000512872585           
       2.639061             0.00778460169            0.000526406311           
       2.641702             0.00740810524            0.000525407214           
       2.644342              0.0076641539            0.000536687097           
       2.646982             0.00685003122            0.000499797061           
       2.649623             0.00736615107            0.000543140735           
       2.652263             0.00756960342            0.000545065238           
       2.654904             0.00748143039            0.000542426547           
       2.657544             0.00658690498            0.000479393781           
       2.660184             0.00699217648            0.000522712724           
       2.662825             0.00805462892            0.000574037299           
       2.665465             0.00722586401            0.000525850967           
       2.668105             0.00739791624            0.000560826977           
       2.670746             0.00729178761            0.000514354951           
       2.673386              0.0077723535            0.000547272937           
       2.676027             0.00874732493            0.000571266391           
       2.678667              0.0095057133              0.0005810747           
       2.681307              0.0116314849            0.000631560401           
       2.683948              0.0149817692            0.000736446327           
       2.686588               0.009225578            0.000568321113           
       2.689229               0.010210654            0.000584236731           
       2.691869             0.00984047366            0.000606183637           
       2.694509              0.0105093912            0.000626792166           
       2.697150             0.00621592041            0.000474224214           
       2.699790             0.00706641858            0.000530077792           
       2.702430             0.00820512759            0.000545991496           
       2.705071             0.00699883657            0.000521059482           
       2.707711             0.00699080812            0.000505437129           
       2.710352             0.00542301879            0.000470375782           
       2.712992             0.00656028109            0.000526917232           
       2.715632             0.00703527826            0.000506263872           
       2.718273             0.00677174609            0.000514753776           
       2.720913             0.00656265546            0.000505302608           
       2.723553             0.00737961889            0.000539427244           
       2.726194             0.00805933788            0.000589276128           
       2.728834             0.00732761011            0.000562152378           
       2.731475             0.00788757228            0.000538275971           
       2.734115              0.0076703396            0.000547285829           
       2.736755             0.00757830736            0.000548470123           
       2.739396             0.00684705262            0.000518316635           
       2.742036             0.00670373226            0.000536744034           
       2.744677             0.00700528636            0.000532374176           
       2.747317             0.00769089164            0.000553840165           
       2.749957             0.00832164449            0.000580146719           
       2.752598             0.00705995201            0.000540159412           
       2.755238             0.00722086707            0.000556142161           
       2.757878             0.00854991301            0.000599871397           
       2.760519             0.00860897425            0.000595557226           
       2.763159             0.00955617543            0.000621195084           
       2.765800             0.00906873713            0.000576693627           
       2.768440             0.00810623321            0.000549248606           
       2.771080             0.00850193965            0.000567189889           
       2.773721             0.00624754931            0.000498752872           
       2.776361             0.00732449251            0.000547482072           
       2.779001             0.00828123877             0.00060286682           
       2.781642             0.00591183515            0.000505617966           
       2.784282             0.00682883355            0.000552354677           
       2.786923             0.00810322156             0.00060698892           
       2.789563             0.00673873104            0.000533114164           
       2.792203             0.00681535111            0.000512163341           
       2.794844             0.00673047357            0.000557816383           
       2.797484             0.00652908084             0.00051850651           
       2.800125             0.00690949566            0.000560868162           
       2.802765             0.00680290442            0.000546951039           
       2.805405             0.00671709158            0.000545329934           
       2.808046             0.00581699436            0.000516400178           
       2.810686             0.00684868749            0.000514874388           
       2.813326             0.00697282934            0.000539637727           
       2.815967             0.00666699037            0.000542673551           
       2.818607             0.00694724517            0.000528631708           
       2.821248             0.00657720417            0.000503681833           
       2.823888             0.00663892329            0.000525281866           
       2.826528             0.00692332941            0.000519491623           
       2.829169             0.00717866028            0.000554081366           
       2.831809             0.00583763739            0.000506451587           
       2.834449             0.00631181907             0.00052994723           
       2.837090             0.00667423073            0.000526334433           
       2.839730             0.00613009914            0.000501960235           
       2.842371             0.00699789873            0.000537088352           
       2.845011             0.00711530645            0.000545892018           
       2.847651             0.00671952893            0.000531144154           
       2.850292             0.00671120202            0.000536024442           
       2.852932             0.00634798011            0.000532678643           
       2.855573             0.00672665221            0.000531901667           
       2.858213             0.00780362239            0.000601616094           
       2.860853             0.00689636122            0.000526103925           
       2.863494             0.00666992155            0.000535689935           
       2.866134             0.00643872663            0.000547048486           
       2.868774             0.00668155163            0.000547680702           
       2.871415             0.00688686673            0.000564692783           
       2.874055             0.00629842159            0.000516200787           
       2.876696             0.00674248805             0.00054853442           
       2.879336             0.00790662214            0.000572505538           
       2.881976             0.00674386106            0.000545354264           
       2.884617             0.00718952884            0.000554816086           
       2.887257             0.00808903198            0.000591538448           
       2.889897              0.0072507612            0.000548523241           
       2.892538             0.00641848251            0.000565370626           
       2.895178             0.00736188674            0.000547025727           
       2.897819             0.00654863826            0.000526295365           
       2.900459             0.00698840054            0.000533103192           
       2.903099             0.00752962327             0.00054769731           
       2.905740             0.00738612987            0.000556487895           
       2.908380             0.00673923807            0.000537600198           
       2.911021             0.00678010894            0.000547994877           
       2.913661             0.00707582207            0.000559649967           
       2.916301              0.0070431875            0.000558890361           
       2.918942             0.00653436245            0.000514919981           
       2.921582             0.00706929802            0.000560373466           
       2.924222             0.00688456161            0.000535753644           
       2.926863             0.00615483603            0.000527645981           
       2.929503             0.00861205176            0.000631542728           
       2.932144             0.00622966362            0.000515614697           
       2.934784             0.00660251665            0.000522116631           
       2.937424             0.00708217952            0.000546301413           
       2.940065             0.00594591744            0.000477489314           
       2.942705             0.00658372879            0.000501816553           
       2.945346             0.00720301217            0.000557038298           
       2.947986             0.00712815176            0.000565027064           
       2.950626             0.00712987232            0.000561913563           
       2.953267             0.00723932356            0.000557061685           
       2.955907             0.00669202154            0.000555601658           
       2.958547             0.00656707803            0.000519596902           
       2.961188             0.00604123762            0.000519928922           
       2.963828             0.00735374171            0.000561120506           
       2.966469             0.00638138151             0.00051277493           
       2.969109             0.00721587406            0.000553351935           
       2.971749             0.00741353815            0.000557380743           
       2.974390             0.00729172918            0.000543210185           
       2.977030             0.00740516063            0.000559652858           
       2.979670             0.00877154973            0.000592468461           
       2.982311             0.00923741692            0.000630159615           
       2.984951             0.00763053903            0.000544720344           
       2.987592             0.00720073948            0.000539755565           
       2.990232              0.0075688546            0.000575509506           
       2.992872             0.00849062755            0.000574158981           
       2.995513             0.00933560982            0.000589004493           
       2.998153              0.0110271985            0.000650902501           
       3.000794              0.0130194235            0.000685054161           
       3.003434              0.0131163077            0.000688636545           
       3.006074              0.0446300434             0.00125247142           
       3.008715               0.116962405              0.0019572474           
       3.011355               0.186184765             0.00238131689           
       3.013995              0.0971152338             0.00172452225           
       3.016636               0.062663743             0.00135650398           
       3.019276               0.130203746             0.00192206988           
       3.021917               0.481711523             0.00355485705           
       3.024557                1.62685421             0.00642292604           
       3.027197                1.18207976             0.00533781064           
       3.029838               0.515646766              0.0035754682           
       3.032478               0.269534579             0.00258764904           
       3.035118              0.0715542237             0.00135114995           
       3.037759              0.0946909652              0.0015523137           
       3.040399               0.130203976             0.00187766061           
       3.043040               0.520990461             0.00380198854           
       3.045680               0.408841299             0.00316881915           
       3.048320              0.0900656459             0.00151966137           
       3.050961               0.109521952             0.00170531088           
       3.053601              0.0873981793             0.00146718584           
       3.056242              0.0581338657             0.00127223867           
       3.058882              0.0507456112             0.00127506627           
       3.061522              0.0393925888             0.00110220545           
       3.064163              0.0462221778             0.00117889998           
       3.066803               0.108312271             0.00189989738           
       3.069443               0.106762978             0.00197351162           
       3.072084              0.0507965367             0.00132552013           
       3.074724              0.0391068451             0.00129885313           
       3.077365              0.0841192817               0.001971946           
       3.080005              0.0162914587            0.000872732612           
       3.082645               0.010302479              0.0007290844           
       3.085286              0.0133710427            0.000837148614           
       3.087926              0.0101105535            0.000722349285           
       3.090566              0.0104291895            0.000718829014           
       3.093207              0.0102445857             0.00074136622           
       3.095847              0.0079745086            0.000626935307           
       3.098488             0.00854826617            0.000719737776           
       3.101128              0.0103247645             0.00079608492           
       3.103768              0.0103452113            0.000781880795           
       3.106409              0.0100292548             0.00081932575           
       3.109049              0.0101047976            0.000789221966           
       3.111690             0.00892467945            0.000728973028           
       3.114330             0.00786527992            0.000698898668           
       3.116970             0.00788146269            0.000704988342           
       3.119611              0.0103434271            0.000859665517           
       3.122251              0.0204403342             0.00126411591           
       3.124891              0.0359456943             0.00169197111           
       3.127532              0.0252737137             0.00138794461           
       3.130172              0.0135012805             0.00103196586           
       3.132813             0.00914858208            0.000836286816           
       3.135453             0.00703782055             0.00072745355           
       3.138093             0.00722082452             0.00079840393           
       3.140734             0.00818484455             0.00078421854           
       3.143374             0.00689502696            0.000761198995           
       3.146014             0.00650371722            0.000795872461           
       3.148655             0.00722476404            0.000779771114           
       3.151295             0.00584160431            0.000747202883           
       3.153936             0.00533509373            0.000689774391           
       3.156576             0.00519999203            0.000671721957           
       3.159216             0.00604635726            0.000727950665           
       3.161857             0.00545590263            0.000688679666           
       3.164497             0.00747623274            0.000847049898           
       3.167138             0.00665150904            0.000825525699           
       3.169778             0.00661025036            0.000809389661           
       3.172418             0.00687706587            0.000817165819           
       3.175059              0.0061031683            0.000682473436           
       3.177699              0.0067514848            0.000760114254           
       3.180339             0.00411562138            0.000635854402           
       3.182980              0.0049143246            0.000718372588           
       3.185620             0.00588210536            0.000800403475           
       3.188261             0.00607659543            0.000828046134           
       3.190901             0.00793186441            0.000870087268           
       3.193541             0.00650969281            0.000828244326           
       3.196182             0.00479653186            0.000740916715           
       3.198822              0.0060640321            0.000833358772           
       3.201463             0.00563671892            0.000789617869           
       3.204103             0.00590308288            0.000803142944           
       3.206743             0.00468330387            0.000715300965           
       3.209384              0.0061159465            0.000883150934           
       3.212024             0.00508251271            0.000750592751           
       3.214664             0.00599758145            0.000927188613           
       3.217305             0.00644797868              0.0009138512           
       3.219945             0.00590088248            0.000899800998           
       3.222586             0.00596399323            0.000861616422           
       3.225226             0.00704460664             0.00103881952           
       3.227866             0.00394891016            0.000710872601           
       3.230507             0.00590221808            0.000900898445           
       3.233147             0.00629339938            0.000937785774           
       3.235787             0.00788329967             0.00107411266           
       3.238428             0.00459203397            0.000884648491           
       3.241068             0.00535486561            0.000893258533           
       3.243709             0.00747848718             0.00109062859           
       3.246349             0.00634981131             0.00091611819           
       3.248989             0.00530880743            0.000989094036           
       3.251630             0.00737543536             0.00112265655           
       3.254270             0.00477364119             0.00080720481           
       3.256911             0.00485426031            0.000888156115           
       3.259551             0.00508046466            0.000978204169           
       3.262191             0.00606746981             0.00109193991           
       3.264832             0.00449501685            0.000982007067           
       3.267472             0.00793092795             0.00122366791           
       3.270112             0.00714239986             0.00128332309           
       3.272753             0.00560643269             0.00104071549           
       3.275393             0.00766427034             0.00124157397           
       3.278034             0.00482020041            0.000985176805           
       3.280674             0.00497908304             0.00108652976           
       3.283314             0.00530237411             0.00100279403           
       3.285955             0.00344046755            0.000833436612           
       3.288595             0.00601784702             0.00122630656           
       3.291235             0.00494980285             0.00114330455           
       3.293876             0.00625248191             0.00130343855           
       3.296516             0.00750658116             0.00137109268           
       3.299157             0.00537806086             0.00114595359           
       3.301797             0.00601352323             0.00138224277           
       3.304437             0.00451126203             0.00103723637           
       3.307078              0.0063252972             0.00135293822           
       3.309718             0.00646700276             0.00141203129           
       3.312359             0.00650470892             0.00141647817           
       3.314999             0.00446798123             0.00115585524           
       3.317639             0.00602777437             0.00128397168           
       3.320280             0.00494582772             0.00123655664           
       3.322920             0.00637200987             0.00142718906           
       3.325560             0.00893923746             0.00169156416           
       3.328201             0.00776118181             0.00141952814           
       3.330841               0.004600846             0.00133018429           
       3.333482             0.00755414434             0.00161110152           
       3.336122             0.00686632874             0.00153671083           
       3.338762             0.00544813729             0.00158122654           
       3.341403             0.00420157237              0.0013268593           
       3.344043             0.00306210313             0.00108752036           
       3.346683             0.00642526578             0.00160828905           
       3.349324             0.00305980298             0.00124783944           
       3.351964             0.00959324927             0.00233646834           
       3.354605             0.00671403267             0.00223543977           
       3.357245             0.00605128974             0.00191448946           
       3.359885             0.00583387825              0.0015045037           
       3.362526             0.00543963158             0.00181675998           
       3.365166             0.00649228174             0.00187202792           
       3.367807             0.00354233692             0.00176969971           
       3.370447             0.00607765564             0.00192285402           
       3.373087             0.00418661635             0.00170662109           
       3.375728             0.00604366148             0.00231416766           
       3.378368             0.00594355498              0.0034059463           
       3.381008             0.00757734141             0.00286715531           
       3.383649              0.0076127816             0.00230541405           
       3.386289             0.00778874407             0.00275988832           
       3.388930             0.00728448609             0.00422182829           
       3.391570             0.00358764164             0.00209588825           
       3.394210             0.00591016955             0.00340434474           
       3.396851              0.0146184393             0.00598904896           
       3.399491             0.00726706991             0.00422385615           
       3.402131           -2.62535654e-05                         0           
       3.404772           -2.62662367e-05                         0           
       3.407412                       nan                       nan           
       3.410053              0.0092009084             0.00952347065           
       3.412693                       nan                       nan           
       3.415333             0.00893872524             0.00939576739           
