################################################################################
# EDF_DataBlockID                     0.Image.Psd
# EDF_BinarySize                      2105344
# EDF_HeaderSize                      2560
# ByteOrder                           LowByteFirst
# DataType                            FloatValue
# Dim_1                               512
# Dim_2                               1028
# Image                               0
# HeaderID                            EH:000000:000000:000000
# Size                                2105344
# Center_1                            304.9000
# Center_2                            588.7000
# Comment                             Xenocs_Cell_Window - 20251028_20perc_iodine_1.23mg
# DDummy                              0.6
# Date                                2025-11-01T00:52:09
# Delta                               21.910000
# Dummy                               -1.5
# ExposureTime                        360
# Gamma                               15.360000
# Intensity1                          8.58427e-10
# PSize_1                             7.5e-05
# PSize_2                             7.5e-05
# Pressure                            0.0327435
# SampleDistance                      0.115750
# SampleEnvKind                       large
# SampleEnvPN                         ElectroChemical cell
# SampleEnvSN                         1141
# Thickness                           0
# Wavelength                          1.541891e-10
# Wavelength                          1.54189e-10
# aux                                 0
# aux_dial                            0.002375
# beamx                               588.434
# beamx_dial                          588.434
# beamz                               657.808
# beamz_dial                          657.808
# det0x                               0
# det0x_dial                          6.36945
# det0xvd                             0
# det0xvd_dial                        0
# det0y                               450.002
# det0y_dial                          481.635
# det0z                               0
# det0z_dial                          1.23302
# det0zvd                             0
# det0zvd_dial                        0
# mag                                 1.818
# mag_dial                            1.818
# om                                  0.2499
# om_dial                             -0.610199
# phi                                 -0.0120535
# phi_dial                            0
# ry                                  0.599993
# ry_dial                             0.599993
# s1bot                               0.8
# s1bot_dial                          -1.66094
# s1hl                                0.8
# s1hl_dial                           -0.608437
# s1hr                                0.8
# s1hr_dial                           0.970938
# s1top                               0.8
# s1top_dial                          -0.461562
# s2bot                               0.45
# s2bot_dial                          1.36109
# s2hl                                0.45
# s2hl_dial                           -0.83375
# s2hr                                0.45
# s2hr_dial                           -0.118594
# s2top                               0.45
# s2top_dial                          1.44734
# w2theta                             32
# w2theta_dial                        32
# waxsch                              19.2605
# waxsch_dial                         -32.7355
# waxsh                               137.085
# waxsh_dial                          -43.5338
# waxsth                              26.0607
# waxsth_dial                         -19.4086
# waxsz                               67.0407
# waxsz_dial                          -23.7954
# wind                                65.9854
# wind_dial                           66.0041
# wpsi                                124
# wpsi_dial                           124
# wstod                               115
# wstod_dial                          115
# x                                   0
# x_dial                              1.00969
# z                                   0
# z_dial                              13.3172
# CountCutoff                         6807993
# DetectorModel                       Dectris EIGER2 Si 500K, S/N E-01-0554
# ThresholdSetting                    4023.88989258
# Saturation                          0
# FlatField                           Corrected
# BackgroundReductionExtra            0.02
# BackgroundCorrectionConstant        0.0026712
# Detector                            0
# Monitor                             0
# Pil_Roi0                            0
# SumForIntensity1                    3.09034e+08
# TransmittedFlux                     858427
# det                                 0
# mon                                 0
# pilai0                              3.09034e+08
# pilai1                              785538
# pilct0                              5.3446e+08
# pilct1                              785538
# pilroi0                             0
# pilroi1                             0
# sec                                 1
# title                               20251028_20perc_iodine_1.23mg_1_00750.edf
# usaxs0                              0
# Operation                           Azimuthal average I(q)
# Error_model                         ErrorModel.poisson
# Geometrical_correction              True
# Transmission_correction             True
# Thickness_correction                False
# Binning mode                        Uniform
# Binning factor                      1.0
# Psi                                 0.0
# Omega                               0.2499
# MaskInvalidPixels                   True
# DetectorEdge                        3
# MaskFiles                           ['WAXS_corrected.edf']
################################################################################
    q(A⁻¹)                Intensity(a.u.)            Sigma_I(a.u.)            
       0.693100             0.00410263611             0.00426180803           
       0.695741             0.00277521436             0.00286034468           
       0.698381           -2.36321011e-05                         0           
       0.701021           -2.36143888e-05                         0           
       0.703662             0.00840206255             0.00497470764           
       0.706302             0.00672946962             0.00344684838           
       0.708942             0.00283502027             0.00288755923           
       0.711583             0.00869136876             0.00437806998           
       0.714223             0.00291034278             0.00292489717           
       0.716864              0.0113567543             0.00378038846           
       0.719504             0.00586739087             0.00293224112           
       0.722144             0.00497189501             0.00249968315           
       0.724785             0.00475580495             0.00195014727           
       0.727425             0.00874790431             0.00357805862           
       0.730065              0.0072674234             0.00230689001           
       0.732706             0.00517301075             0.00163439525           
       0.735346              0.0096497692              0.0029098324           
       0.737987             0.00915678978             0.00200298734           
       0.740627             0.00485156601             0.00217537453           
       0.743267              0.0100955855             0.00210184643           
       0.745908              0.0098336297             0.00225061327           
       0.748548              0.0108947498             0.00218356948           
       0.751189             0.00637263146             0.00225026836           
       0.753829             0.00669377707             0.00211999892           
       0.756469             0.00607658933              0.0016287833           
       0.759110             0.00531925633             0.00160594016           
       0.761750             0.00873721791             0.00181991518           
       0.764390             0.00621398014             0.00160640468           
       0.767031             0.00739854459             0.00151789713           
       0.769671             0.00290650096             0.00118677685           
       0.772312               0.006999323             0.00140204903           
       0.774952             0.00304231822             0.00124823748           
       0.777592             0.00676036466             0.00135530534           
       0.780233             0.00752757139             0.00172545366           
       0.782873             0.00644246989              0.0015266683           
       0.785513              0.0053982453             0.00149399304           
       0.788154             0.00833333534             0.00155280015           
       0.790794             0.00536203192             0.00148912059           
       0.793435             0.00902435502             0.00173549543           
       0.796075              0.0071277283             0.00148578894           
       0.798715             0.00906627465             0.00198019852           
       0.801356              0.0047611803             0.00123505849           
       0.803996             0.00529357923             0.00132769291           
       0.806637             0.00651775127             0.00117242221           
       0.809277             0.00791862052             0.00139875369           
       0.811917              0.0077657599             0.00129492945           
       0.814558             0.00809373088             0.00137397353           
       0.817198             0.00736399124             0.00124510408           
       0.819838             0.00821817234             0.00133121702           
       0.822479              0.0080516964             0.00154729824           
       0.825119             0.00770060582             0.00128791294           
       0.827760             0.00706651311             0.00124973945           
       0.830400             0.00427579536            0.000914956731           
       0.833040             0.00773123078             0.00128899158           
       0.835681             0.00721384708             0.00141548189           
       0.838321             0.00705961135             0.00117528979           
       0.840961              0.0060099268             0.00118150387           
       0.843602             0.00602748393             0.00108506878           
       0.846242             0.00780681541              0.0012346999           
       0.848883             0.00922045705             0.00137317996           
       0.851523              0.0105743537             0.00145227753           
       0.854163             0.00652613904             0.00121330514           
       0.856804             0.00691457016             0.00112292411           
       0.859444             0.00716928528             0.00112033057           
       0.862085             0.00607369185             0.00107474805           
       0.864725             0.00718683581             0.00119644627           
       0.867365              0.0082147888              0.0011861468           
       0.870006              0.0071316551             0.00105315741           
       0.872646              0.0077160211             0.00114873692           
       0.875286             0.00631376782            0.000999703441           
       0.877927             0.00485658174            0.000846054938           
       0.880567             0.00727750536             0.00107298278           
       0.883208             0.00634688913            0.000992592761           
       0.885848                0.00717774             0.00109599291           
       0.888488             0.00793841823             0.00108107327           
       0.891129             0.00868097039             0.00116079216           
       0.893769             0.00693635447            0.000993023913           
       0.896410             0.00861589936             0.00103186656           
       0.899050             0.00670326823             0.00100092576           
       0.901690             0.00797369138             0.00118913735           
       0.904331             0.00892021358             0.00111505335           
       0.906971             0.00836093962             0.00114844435           
       0.909611              0.0083305262             0.00104354875           
       0.912252             0.00834773023             0.00107898869           
       0.914892             0.00847516701             0.00118807068           
       0.917533             0.00712417533              0.0010304452           
       0.920173             0.00616048167             0.00088903917           
       0.922813             0.00874985196             0.00111185905           
       0.925454             0.00549058645            0.000793102247           
       0.928094             0.00753821579            0.000992101903           
       0.930734             0.00723932417             0.00104671792           
       0.933375             0.00680508221             0.00100486293           
       0.936015             0.00744640828            0.000954666513           
       0.938656             0.00478089429            0.000820610202           
       0.941296              0.0072923244            0.000918492267           
       0.943936             0.00866957401            0.000982104366           
       0.946577             0.00787929997            0.000930083319           
       0.949217             0.00731328992            0.000824003396           
       0.951858             0.00650451217            0.000813474344           
       0.954498             0.00681822293             0.00096402094           
       0.957138             0.00549292748            0.000819727078           
       0.959779             0.00796925206            0.000973335372           
       0.962419             0.00903438932             0.00102944866           
       0.965059             0.00816658097             0.00102939757           
       0.967700             0.00733130572            0.000998936258           
       0.970340             0.00734793352            0.000884961592           
       0.972981             0.00732859261            0.000805223089           
       0.975621             0.00731049445            0.000855560241           
       0.978261             0.00650196278            0.000766661135           
       0.980902             0.00682802975            0.000939990593           
       0.983542             0.00760914391             0.00087874776           
       0.986182             0.00753985164             0.00085881188           
       0.988823             0.00719262891            0.000814480095           
       0.991463             0.00703149742            0.000859176736           
       0.994104             0.00908288194            0.000952586807           
       0.996744             0.00644580731            0.000818517848           
       0.999384             0.00741161958            0.000784957329           
       1.002025             0.00725086075            0.000866562468           
       1.004665             0.00830318457            0.000847451475           
       1.007306             0.00751914964            0.000802321057           
       1.009946             0.00793610716            0.000840636391           
       1.012586              0.0075869142            0.000800515431           
       1.015227             0.00877559006            0.000924924203           
       1.017867             0.00874420015             0.00088732489           
       1.020507             0.00787435614            0.000815625331           
       1.023148             0.00755587556            0.000862100758           
       1.025788             0.00826196289            0.000826588267           
       1.028429             0.00678964282            0.000785042725           
       1.031069             0.00805512362            0.000804661641           
       1.033709             0.00943655136            0.000925802008           
       1.036350             0.00783422894            0.000757621064           
       1.038990             0.00752423468            0.000756124652           
       1.041630             0.00727273891            0.000775353489           
       1.044271             0.00898639806            0.000810560807           
       1.046911             0.00890399144            0.000848685974           
       1.049552             0.00760310473            0.000823945813           
       1.052192             0.00782331667            0.000763184763           
       1.054832             0.00773527378             0.00076578161           
       1.057473              0.0074490941            0.000740802996           
       1.060113              0.0075639864            0.000728034719           
       1.062754              0.0077953175            0.000754591428           
       1.065394             0.00840782081            0.000828548381           
       1.068034             0.00763399807            0.000718336805           
       1.070675             0.00780741911            0.000757776801           
       1.073315             0.00833186762            0.000794034891           
       1.075955             0.00787714613            0.000728871806           
       1.078596              0.0089681353            0.000826551617           
       1.081236             0.00851634724            0.000771283369           
       1.083877             0.00746505884            0.000715633116           
       1.086517             0.00794868284            0.000791835054           
       1.089157             0.00772136336            0.000809783892           
       1.091798             0.00938304818            0.000782624217           
       1.094438             0.00932820752            0.000777815205           
       1.097078             0.00943298287            0.000750184308           
       1.099719             0.00704323864            0.000701160707           
       1.102359             0.00876331265            0.000732451462           
       1.105000             0.00847937703            0.000805645841           
       1.107640             0.00853815231            0.000772993607           
       1.110280             0.00826307033            0.000693843063           
       1.112921             0.00956544485            0.000801926969           
       1.115561              0.0106484816            0.000804155321           
       1.118202             0.00894884322            0.000737884822           
       1.120842             0.00852290733            0.000756840567           
       1.123482             0.00905592535            0.000776740495           
       1.126123               0.008941032            0.000740283095           
       1.128763             0.00912168722            0.000752851109           
       1.131403             0.00754756155            0.000659880297           
       1.134044              0.0100216591            0.000782434597           
       1.136684             0.00931449002            0.000804239897           
       1.139325              0.0103128003            0.000779556821           
       1.141965              0.0091943375            0.000740937054           
       1.144605             0.00774992237            0.000648622208           
       1.147246             0.00936434215            0.000729680796           
       1.149886             0.00925700204            0.000722911269           
       1.152527             0.00946018647            0.000741429215           
       1.155167             0.00936053564            0.000701488028           
       1.157807              0.0076074351            0.000678041069           
       1.160448             0.00808242178            0.000682482093           
       1.163088             0.00922818889             0.00069560088           
       1.165728              0.0100060964            0.000743679458           
       1.168369             0.00814661796            0.000677229652           
       1.171009             0.00803221046            0.000652601745           
       1.173650             0.00982647825            0.000740760668           
       1.176290             0.00938528268            0.000707451895           
       1.178930             0.00901524833            0.000679561088           
       1.181571             0.00899154591            0.000692125381           
       1.184211             0.00890054149             0.00069105547           
       1.186851             0.00954317281            0.000699600807           
       1.189492             0.00854877982            0.000657694752           
       1.192132             0.00988544996            0.000699310738           
       1.194773             0.00923901763            0.000679013307           
       1.197413             0.00879210959            0.000634660721           
       1.200053             0.00931743171            0.000669946444           
       1.202694               0.010505944            0.000676493925           
       1.205334             0.00935101216            0.000687809739           
       1.207975             0.00892618465            0.000641446896           
       1.210615              0.0080776464            0.000673151163           
       1.213255              0.0111008962            0.000706648806           
       1.215896             0.00946625295            0.000664373344           
       1.218536             0.00980706747            0.000650221531           
       1.221176              0.0110182218            0.000749305688           
       1.223817             0.00982872762            0.000664334172           
       1.226457              0.0105063979            0.000700692253           
       1.229098              0.0109339182            0.000714771363           
       1.231738             0.00877443128            0.000643459061           
       1.234378             0.00999014969            0.000645154433           
       1.237019              0.0100744899            0.000667625979           
       1.239659             0.00938796476             0.00063886295           
       1.242299              0.0101870499            0.000657041912           
       1.244940              0.0102220485            0.000640111209           
       1.247580              0.0104205103            0.000666060092           
       1.250221               0.011387021            0.000691967861           
       1.252861              0.0103146011            0.000626969225           
       1.255501             0.00957083399            0.000655765069           
       1.258142              0.0107501186            0.000653069992           
       1.260782               0.011212882            0.000681409913           
       1.263423              0.0104782596            0.000632946014           
       1.266063               0.010673009            0.000654752629           
       1.268703              0.0103994203              0.0006409432           
       1.271344             0.00915667774            0.000621811261           
       1.273984              0.0100334564             0.00062864191           
       1.276624              0.0104846991            0.000630550003           
       1.279265             0.00974552864            0.000618012354           
       1.281905              0.0107459403            0.000651838291           
       1.284546              0.0107559928            0.000630355452           
       1.287186              0.0104850341            0.000610606139           
       1.289826              0.0104317466            0.000641891505           
       1.292467             0.00948446204            0.000598572628           
       1.295107              0.0107041478            0.000629579928           
       1.297747              0.0100312859             0.00058321324           
       1.300388              0.0112778133            0.000674121709           
       1.303028              0.0102332662            0.000613030009           
       1.305669              0.0100806171             0.00062292809           
       1.308309              0.0112392468             0.00065127586           
       1.310949              0.0094452398            0.000596439229           
       1.313590              0.0124389918            0.000663070999           
       1.316230              0.0117446002            0.000687555081           
       1.318871              0.0104515243            0.000635225892           
       1.321511             0.00956513591            0.000596428847           
       1.324151             0.00985944449             0.00058758317           
       1.326792              0.0106713754            0.000615077782           
       1.329432              0.0101881228            0.000596748493           
       1.332072              0.0111536706            0.000615080733           
       1.334713              0.0103377084            0.000611162662           
       1.337353               0.011710455            0.000623819865           
       1.339994              0.0116080344            0.000651767762           
       1.342634              0.0116696465            0.000626660827           
       1.345274              0.0116211213             0.00064718528           
       1.347915              0.0105215951            0.000598802647           
       1.350555              0.0103335439            0.000603820551           
       1.353195              0.0110590531            0.000627725878           
       1.355836              0.0110750578             0.00061838465           
       1.358476               0.011318668            0.000607114342           
       1.361117              0.0121686241             0.00063036092           
       1.363757              0.0106689205            0.000608262915           
       1.366397              0.0109213983            0.000596794745           
       1.369038              0.0117069501            0.000624037562           
       1.371678               0.010210072            0.000577640334           
       1.374319              0.0119037042            0.000618341407           
       1.376959              0.0106637507            0.000579365522           
       1.379599              0.0111993398            0.000636305905           
       1.382240              0.0113663803            0.000602475411           
       1.384880              0.0108607088            0.000623801556           
       1.387520              0.0111542907            0.000600397529           
       1.390161              0.0112976274            0.000573885579           
       1.392801               0.011790934            0.000610847934           
       1.395442              0.0106353243            0.000588065499           
       1.398082              0.0113957647             0.00057004566           
       1.400722              0.0115046103            0.000599954582           
       1.403363             0.00948778087            0.000573504695           
       1.406003              0.0109914624            0.000577691419           
       1.408644              0.0122259547            0.000638249611           
       1.411284              0.0106766587            0.000564775873           
       1.413924               0.010713211            0.000563644468           
       1.416565              0.0102224965            0.000548421646           
       1.419205              0.0116757712            0.000611405914           
       1.421845              0.0106361279             0.00058320809           
       1.424486              0.0104205965            0.000554887969           
       1.427126              0.0102235244            0.000570944698           
       1.429767              0.0111590419            0.000561229767           
       1.432407              0.0108036723            0.000577912212           
       1.435047              0.0108163097            0.000543072835           
       1.437688               0.011406894            0.000566040654           
       1.440328               0.010580957            0.000556400065           
       1.442968              0.0111407702            0.000583721258           
       1.445609              0.0116307798            0.000577500118           
       1.448249              0.0108212949            0.000571145055           
       1.450890              0.0103505145            0.000554937227           
       1.453530              0.0111896446            0.000603651414           
       1.456170              0.0100686789            0.000555738339           
       1.458811              0.0124005853            0.000589744097           
       1.461451              0.0106696653            0.000548473537           
       1.464092              0.0116862547            0.000577760774           
       1.466732              0.0104252437            0.000541010079           
       1.469372              0.0109730483            0.000542052372           
       1.472013              0.0109166679            0.000583110484           
       1.474653              0.0110863074            0.000578558799           
       1.477293              0.0091951032            0.000538010436           
       1.479934              0.0117532192             0.00058040919           
       1.482574              0.0114256315            0.000553575425           
       1.485215              0.0105508478            0.000541869622           
       1.487855              0.0102281619            0.000540557035           
       1.490495               0.010388933            0.000542782426           
       1.493136              0.0112934507            0.000558161193           
       1.495776              0.0111485675            0.000552044186           
       1.498416              0.0106387164            0.000556916795           
       1.501057              0.0109441191            0.000552405321           
       1.503697              0.0111640468            0.000545463758           
       1.506338              0.0102631166            0.000532548481           
       1.508978               0.010877102            0.000542855193           
       1.511618              0.0113883166            0.000591568149           
       1.514259              0.0106334979            0.000551879544           
       1.516899              0.0105940243            0.000536349435           
       1.519540              0.0110062674            0.000555500981           
       1.522180              0.0106408986             0.00055100095           
       1.524820              0.0103126883            0.000539393472           
       1.527461              0.0109404831            0.000558316643           
       1.530101              0.0108098727            0.000549423637           
       1.532741              0.0106878628            0.000543143727           
       1.535382              0.0104138403            0.000544766906           
       1.538022               0.011060146            0.000528884694           
       1.540663              0.0112620219            0.000574016139           
       1.543303             0.00975215921            0.000495970505           
       1.545943              0.0103756888            0.000541470116           
       1.548584              0.0110394022            0.000568545878           
       1.551224             0.00961700125            0.000490641049           
       1.553864             0.00988966127            0.000525752153           
       1.556505             0.00980043026            0.000505593741           
       1.559145              0.0101544279             0.00052094826           
       1.561786              0.0105688419            0.000531881528           
       1.564426             0.00995091963            0.000500045959           
       1.567066               0.010473349            0.000537530127           
       1.569707             0.00947229174            0.000502013437           
       1.572347              0.0106507923            0.000549947356           
       1.574988             0.00994035339            0.000505698338           
       1.577628             0.00980725967            0.000523776584           
       1.580268              0.0106957093            0.000529972186           
       1.582909             0.00951904714            0.000529949631           
       1.585549              0.0102317356            0.000533479141           
       1.588189             0.00965146215            0.000506822323           
       1.590830             0.00917197988            0.000493452436           
       1.593470             0.00939953682            0.000519315791           
       1.596111             0.00946268267            0.000508713742           
       1.598751             0.00921626291            0.000486466024           
       1.601391             0.00905598021            0.000492856378           
       1.604032             0.00946448272            0.000514382863           
       1.606672             0.00860356729            0.000476499635           
       1.609312             0.00851958076            0.000494976123           
       1.611953             0.00985194528            0.000520864345           
       1.614593             0.00871737111            0.000480607282           
       1.617234             0.00930692931            0.000514657663           
       1.619874             0.00847097726            0.000489060989           
       1.622514             0.00817429361            0.000473866693           
       1.625155             0.00939840488            0.000511112129           
       1.627795             0.00839690021             0.00047127574           
       1.630436             0.00884537467            0.000481171639           
       1.633076             0.00896704847            0.000490823763           
       1.635716             0.00880536483            0.000478811008           
       1.638357             0.00973702581            0.000504831954           
       1.640997             0.00936052058            0.000509969282           
       1.643637             0.00867392758            0.000477710798           
       1.646278             0.00784475801            0.000468578683           
       1.648918             0.00841845196            0.000486734339           
       1.651559             0.00947568405             0.00052040194           
       1.654199             0.00882240196            0.000488377758           
       1.656839             0.00789524123            0.000462164655           
       1.659480             0.00920716259            0.000517829456           
       1.662120             0.00976455439            0.000502255851           
       1.664761             0.00878985963            0.000494991116           
       1.667401             0.00916701994            0.000483149055           
       1.670041             0.00910452665            0.000488841158           
       1.672682             0.00876964064            0.000477794641           
       1.675322              0.0088960173            0.000478130495           
       1.677962             0.00907402744            0.000477563618           
       1.680603             0.00865422293            0.000467820888           
       1.683243             0.00892247106            0.000495590499           
       1.685884             0.00879493873            0.000495669426           
       1.688524             0.00914064289            0.000495549363           
       1.691164             0.00807886885            0.000465985489           
       1.693805             0.00907364867            0.000499267131           
       1.696445             0.00941795145            0.000511601913           
       1.699085             0.00847681718            0.000469103373           
       1.701726             0.00827999583            0.000446622124           
       1.704366             0.00843529401            0.000474896013           
       1.707007             0.00858816287            0.000468498415           
       1.709647              0.0090187539            0.000485521309           
       1.712287             0.00869637927            0.000480914766           
       1.714928             0.00830777123            0.000473836639           
       1.717568             0.00850669365            0.000451668189           
       1.720209             0.00859707196            0.000475597608           
       1.722849             0.00860585878            0.000473394248           
       1.725489             0.00921383242            0.000490242032           
       1.728130             0.00836692264            0.000496468876           
       1.730770             0.00902539897            0.000489714633           
       1.733410             0.00848890352            0.000467471096           
       1.736051             0.00915786759            0.000488920852           
       1.738691              0.0086200152            0.000464730556           
       1.741332             0.00793112765            0.000458808669           
       1.743972             0.00794796305            0.000474300464           
       1.746612             0.00829840744            0.000465381971           
       1.749253             0.00854559287            0.000481588717           
       1.751893             0.00829316589            0.000470940265           
       1.754533             0.00821376745            0.000468242769           
       1.757174             0.00837415641            0.000468364861           
       1.759814              0.0081197249            0.000454204009           
       1.762455             0.00892503763            0.000484939508           
       1.765095             0.00831012495             0.00044763753           
       1.767735             0.00791982306            0.000450480422           
       1.770376             0.00834564671            0.000463651418           
       1.773016             0.00873912129            0.000471277461           
       1.775657             0.00851296457            0.000458446754           
       1.778297              0.0084558622            0.000452972243           
       1.780937             0.00887488663            0.000489815063           
       1.783578             0.00855453281            0.000468869094           
       1.786218             0.00866953135            0.000492594155           
       1.788858             0.00807818555            0.000451608014           
       1.791499             0.00934417034            0.000480252878           
       1.794139              0.0090582513            0.000469011944           
       1.796780             0.00886722038            0.000461802963           
       1.799420             0.00829286873            0.000444123403           
       1.802060             0.00942433421            0.000477276925           
       1.804701              0.0094365222            0.000458312724           
       1.807341             0.00849846243            0.000457023928           
       1.809981             0.00992574972            0.000495559683           
       1.812622             0.00841973311            0.000448201724           
       1.815262              0.0083012769            0.000454491334           
       1.817903             0.00822954826            0.000445818535           
       1.820543             0.00880526959            0.000468334935           
       1.823183             0.00878344276            0.000467496964           
       1.825824             0.00943065702            0.000462790255           
       1.828464             0.00868441914            0.000462996483           
       1.831105             0.00910003191            0.000460842299           
       1.833745             0.00842153581            0.000452797565           
       1.836385              0.0098428805            0.000503489095           
       1.839026             0.00892595623            0.000477949526           
       1.841666              0.0090677848            0.000480023553           
       1.844306             0.00860891876            0.000454958354           
       1.846947              0.0088734965            0.000465945426           
       1.849587             0.00825495899            0.000496260316           
       1.852228             0.00875262593            0.000462071027           
       1.854868             0.00807491204            0.000468831901           
       1.857508             0.00842644185            0.000474230877           
       1.860149              0.0086051047            0.000487938942           
       1.862789             0.00999682434            0.000507632958           
       1.865429             0.00904176056            0.000503943826           
       1.868070             0.00773197473            0.000459804839           
       1.870710             0.00959543046            0.000500415617           
       1.873351             0.00846210464            0.000475744499           
       1.875991             0.00803688048            0.000471203921           
       1.878631             0.00881721025            0.000484096963           
       1.881272             0.00863995688            0.000475995514           
       1.883912             0.00766982911            0.000466733838           
       1.886553             0.00889888387            0.000497120244           
       1.889193             0.00849375566            0.000484842702           
       1.891833             0.00804349509            0.000490000125           
       1.894474             0.00944334051            0.000526305346           
       1.897114             0.00854795621            0.000484548746           
       1.899754             0.00829883569            0.000479433354           
       1.902395             0.00987936638            0.000512872163           
       1.905035              0.0090484465            0.000519871826           
       1.907676             0.00875756369            0.000482040622           
       1.910316             0.00987083111            0.000525351136           
       1.912956              0.0084455579            0.000475254008           
       1.915597             0.00891441088            0.000490996499           
       1.918237             0.00821907236            0.000486901919           
       1.920878             0.00802852188            0.000479254705           
       1.923518             0.00858811177            0.000495885788           
       1.926158             0.00852503379            0.000487650162           
       1.928799             0.00882497475            0.000490411509           
       1.931439             0.00844412494            0.000492295105           
       1.934079             0.00896620622            0.000528832781           
       1.936720             0.00840199738            0.000474312224           
       1.939360             0.00903922211            0.000524863332           
       1.942001             0.00899603139            0.000479913462           
       1.944641             0.00814305262            0.000465588812           
       1.947281             0.00757215778            0.000444833075           
       1.949922             0.00807679367             0.00047453677           
       1.952562             0.00827265664            0.000495310009           
       1.955202             0.00836715124            0.000497523617           
       1.957843             0.00838894776            0.000485252209           
       1.960483             0.00875702022            0.000518340844           
       1.963124              0.0082647599            0.000493230561           
       1.965764             0.00870491887            0.000477355373           
       1.968404             0.00790309411            0.000450541849           
       1.971045              0.0093056344            0.000498447225           
       1.973685             0.00802633437            0.000485567258           
       1.976326              0.0081371207            0.000482187477           
       1.978966             0.00910819438            0.000514625581           
       1.981606             0.00799824771            0.000492308103           
       1.984247             0.00786466192            0.000484970012           
       1.986887             0.00825548875            0.000490922004           
       1.989527             0.00825102364            0.000485503727           
       1.992168             0.00812256853            0.000499814585           
       1.994808             0.00787582324            0.000490054717           
       1.997449             0.00868536868            0.000504056207           
       2.000089             0.00714091639            0.000455235954           
       2.002729             0.00868813705            0.000502438843           
       2.005370             0.00866406424            0.000496343696           
       2.008010             0.00795397668            0.000496324761           
       2.010650             0.00844334663            0.000515180834           
       2.013291             0.00835845775             0.00049179645           
       2.015931             0.00808669973            0.000480316039           
       2.018572             0.00749097714            0.000494458508           
       2.021212             0.00766913075            0.000491314852           
       2.023852             0.00791600004            0.000472431361           
       2.026493             0.00833039695            0.000506292025           
       2.029133             0.00744255632            0.000468921784           
       2.031774               0.007254224             0.00048585656           
       2.034414             0.00874375046            0.000490811656           
       2.037054             0.00712023645            0.000454133922           
       2.039695             0.00733057299            0.000457312646           
       2.042335             0.00763718034            0.000485085255           
       2.044975             0.00856155853            0.000507374885           
       2.047616             0.00741549101            0.000471023256           
       2.050256             0.00797036196            0.000492949083           
       2.052897             0.00837042153            0.000514482099           
       2.055537              0.0080039032            0.000486219411           
       2.058177             0.00738314105            0.000457303217           
       2.060818             0.00828786495            0.000507564396           
       2.063458             0.00796519076            0.000518533746           
       2.066098             0.00800965052            0.000490514285           
       2.068739             0.00734223515            0.000476933425           
       2.071379             0.00802117039            0.000511497888           
       2.074020             0.00745533202             0.00048240963           
       2.076660             0.00719010626            0.000477580768           
       2.079300             0.00805958955            0.000518022296           
       2.081941             0.00764119585            0.000461833085           
       2.084581             0.00786963721            0.000494702364           
       2.087222              0.0071366421            0.000454331431           
       2.089862             0.00678270446            0.000482409663           
       2.092502             0.00770364672            0.000498363915           
       2.095143              0.0075932009            0.000510932843           
       2.097783             0.00773414251            0.000499238797           
       2.100423             0.00663870324            0.000445694298           
       2.103064              0.0075303813            0.000492547692           
       2.105704             0.00714636124             0.00047744766           
       2.108345             0.00769170418            0.000475879615           
       2.110985             0.00755997309            0.000503902621           
       2.113625             0.00820881388            0.000529663574           
       2.116266             0.00813474105            0.000534749125           
       2.118906             0.00726245209            0.000470879367           
       2.121546             0.00630775248            0.000430460337           
       2.124187             0.00760871127            0.000496264159           
       2.126827             0.00777822885            0.000507361978           
       2.129468             0.00772633956            0.000506958459           
       2.132108             0.00822114534            0.000508780566           
       2.134748              0.0072577086            0.000476185174           
       2.137389              0.0080611736             0.00052355579           
       2.140029             0.00788726805            0.000463635639           
       2.142670             0.00785199555            0.000494388204           
       2.145310             0.00754339039            0.000471645925           
       2.147950             0.00687245432            0.000463360597           
       2.150591             0.00735584761             0.00047453494           
       2.153231             0.00792144802            0.000506891352           
       2.155871             0.00760497777            0.000479809223           
       2.158512             0.00768062358            0.000503130677           
       2.161152             0.00742869708            0.000479304294           
       2.163793             0.00747953503            0.000478776397           
       2.166433             0.00688174598            0.000471596575           
       2.169073              0.0075153983            0.000481858139           
       2.171714             0.00675138682            0.000453295012           
       2.174354             0.00764146727            0.000503907384           
       2.176995             0.00662417727            0.000467193783           
       2.179635             0.00730526996            0.000518450339           
       2.182275             0.00813106903            0.000516425694           
       2.184916             0.00760263424            0.000482319472           
       2.187556             0.00720470484            0.000464821293           
       2.190196             0.00752799181            0.000496510205           
       2.192837             0.00784582251            0.000504125285           
       2.195477             0.00713174463            0.000458230222           
       2.198118             0.00740472636             0.00047888179           
       2.200758             0.00700764012            0.000477948803           
       2.203398             0.00726654987            0.000489811636           
       2.206039             0.00747177065             0.00047006564           
       2.208679              0.0071207486            0.000469570698           
       2.211319             0.00700576184            0.000468449515           
       2.213960             0.00724515972            0.000482768889           
       2.216600             0.00722578906            0.000498745586           
       2.219241             0.00733315086            0.000480194141           
       2.221881             0.00802972793            0.000503516817           
       2.224521             0.00675255338            0.000467398177           
       2.227162              0.0077010933            0.000489153733           
       2.229802             0.00774226416            0.000505812856           
       2.232443             0.00675148136            0.000464890556           
       2.235083             0.00733389524             0.00049881986           
       2.237723             0.00703513847            0.000468838641           
       2.240364             0.00781071479            0.000506176485           
       2.243004             0.00749569724            0.000491905779           
       2.245644             0.00768540926            0.000503077432           
       2.248285              0.0079544432            0.000501553999           
       2.250925             0.00659346385            0.000459409323           
       2.253566             0.00812088975            0.000545071658           
       2.256206             0.00764495044             0.00051828351           
       2.258846             0.00763973157            0.000492862669           
       2.261487             0.00723504558            0.000503417535           
       2.264127             0.00764511782            0.000499781157           
       2.266767              0.0070938856             0.00049425289           
       2.269408             0.00754924775            0.000511957348           
       2.272048             0.00635037663            0.000466747024           
       2.274689             0.00728748269             0.00050658884           
       2.277329             0.00670741229            0.000457608836           
       2.279969             0.00726112419            0.000506805284           
       2.282610             0.00758891085            0.000503708012           
       2.285250              0.0071720206            0.000468687638           
       2.287891             0.00743539485            0.000511647319           
       2.290531             0.00666365512             0.00049087864           
       2.293171             0.00582818282            0.000447181405           
       2.295812             0.00666153684            0.000476162441           
       2.298452             0.00766352915            0.000534076734           
       2.301092             0.00656021591            0.000459114988           
       2.303733              0.0062577631            0.000466499472           
       2.306373             0.00754756839            0.000520392846           
       2.309014             0.00727506423            0.000500945377           
       2.311654             0.00698868204             0.00051236777           
       2.314294             0.00640973012            0.000452071204           
       2.316935             0.00769307987            0.000497310525           
       2.319575             0.00652758542             0.00047997561           
       2.322215             0.00694046595              0.0005157928           
       2.324856             0.00691047789            0.000473192388           
       2.327496             0.00681004147            0.000499482326           
       2.330137             0.00674278639            0.000475601193           
       2.332777             0.00690793075            0.000496364593           
       2.335417              0.0067125925            0.000474690589           
       2.338058             0.00722181509            0.000507074758           
       2.340698             0.00678948674            0.000487799036           
       2.343339             0.00746453951            0.000522729962           
       2.345979             0.00780735438            0.000505772811           
       2.348619             0.00686289765             0.00049152889           
       2.351260              0.0069423078            0.000491484148           
       2.353900             0.00588369931            0.000451029428           
       2.356540             0.00709910915            0.000494725894           
       2.359181             0.00760293294            0.000504802645           
       2.361821             0.00667228781            0.000456807865           
       2.364462             0.00667315634            0.000477794964           
       2.367102             0.00755016967            0.000522280379           
       2.369742              0.0074648501             0.00054662124           
       2.372383             0.00765712482             0.00050129814           
       2.375023             0.00754674129            0.000523160817           
       2.377663             0.00676979627            0.000473770341           
       2.380304             0.00654787168            0.000473709159           
       2.382944             0.00775203825            0.000490930719           
       2.385585             0.00778367207            0.000524653286           
       2.388225             0.00718713288            0.000501778939           
       2.390865             0.00689264775            0.000486343807           
       2.393506             0.00676926162             0.00047287815           
       2.396146             0.00798857019            0.000555440171           
       2.398787             0.00665206023            0.000467103108           
       2.401427             0.00800784944            0.000494679229           
       2.404067             0.00719865487            0.000479481815           
       2.406708              0.0084380672            0.000512895134           
       2.409348              0.0074468787            0.000511075434           
       2.411988             0.00754645787            0.000504077686           
       2.414629              0.0073826867            0.000514105639           
       2.417269             0.00788752721            0.000537596854           
       2.419910             0.00707274142            0.000510254409           
       2.422550             0.00673842549            0.000476502594           
       2.425190             0.00674505885            0.000502530658           
       2.427831             0.00740062212            0.000523426368           
       2.430471             0.00757238135            0.000504418225           
       2.433112             0.00742587419            0.000486408307           
       2.435752             0.00659801103            0.000485229856           
       2.438392             0.00760931587            0.000502959564           
       2.441033             0.00652913317            0.000493755029           
       2.443673             0.00695174873            0.000509875977           
       2.446313              0.0066945948            0.000500797798           
       2.448954             0.00647601596            0.000468980657           
       2.451594             0.00710168151            0.000528061406           
       2.454235             0.00656088071            0.000476218143           
       2.456875             0.00686817203            0.000509830626           
       2.459515             0.00856904641            0.000584213054           
       2.462156             0.00738254859            0.000511969664           
       2.464796             0.00762815166            0.000513701881           
       2.467436             0.00679964444            0.000501550265           
       2.470077             0.00761685882            0.000503134959           
       2.472717             0.00796895942            0.000516861945           
       2.475358             0.00652407894            0.000472539725           
       2.477998             0.00786870065            0.000510206784           
       2.480638             0.00750135859             0.00050700697           
       2.483279             0.00740401929            0.000526453811           
       2.485919             0.00739738303            0.000507131187           
       2.488560             0.00720903275            0.000499234489           
       2.491200              0.0073408785            0.000518759279           
       2.493840             0.00636821887            0.000511258181           
       2.496481             0.00722030558            0.000535483649           
       2.499121             0.00694515673            0.000510822921           
       2.501761             0.00698004751            0.000518889568           
       2.504402             0.00695832885            0.000510512523           
       2.507042             0.00749430608            0.000525884586           
       2.509683             0.00700566971             0.00050068061           
       2.512323             0.00654371064            0.000508206284           
       2.514963             0.00688590224            0.000514884143           
       2.517604             0.00767841491             0.00056417957           
       2.520244             0.00629659534            0.000478968092           
       2.522884             0.00940666328            0.000593797439           
       2.525525               0.011445815            0.000662438317           
       2.528165             0.00865113687            0.000566938187           
       2.530806             0.00730642703            0.000530098146           
       2.533446             0.00806603533            0.000545084377           
       2.536086             0.00774796566            0.000529447519           
       2.538727             0.00790210046            0.000512951756           
       2.541367             0.00722575165            0.000495340498           
       2.544008             0.00673613088            0.000493929837           
       2.546648              0.0065569569            0.000495675346           
       2.549288             0.00741381014            0.000537807741           
       2.551929             0.00705390125             0.00051622914           
       2.554569             0.00679544814            0.000488147275           
       2.557209             0.00681897888            0.000493482494           
       2.559850             0.00699288127            0.000501340203           
       2.562490             0.00694462325               0.000516371           
       2.565131             0.00693495326             0.00053502382           
       2.567771             0.00779440665            0.000546874342           
       2.570411             0.00747539866             0.00052977149           
       2.573052             0.00685002393            0.000513514403           
       2.575692              0.0069944376            0.000515756988           
       2.578332             0.00762655809            0.000540785737           
       2.580973             0.00715674517            0.000518879796           
       2.583613             0.00684089585            0.000495221407           
       2.586254             0.00664759999            0.000487496357           
       2.588894              0.0062062309             0.00048914705           
       2.591534             0.00682026502            0.000530817437           
       2.594175              0.0066333725             0.00051361543           
       2.596815              0.0058690836            0.000485969714           
       2.599456             0.00694655702            0.000501363234           
       2.602096             0.00627288479            0.000480058256           
       2.604736             0.00677833008              0.0005108572           
       2.607377               0.006780438            0.000497471777           
       2.610017             0.00757976036            0.000516773253           
       2.612657             0.00576548781            0.000479390457           
       2.615298              0.0072526209            0.000524938738           
       2.617938             0.00735185712            0.000565379037           
       2.620579             0.00689665982            0.000525686988           
       2.623219             0.00687358098            0.000524058578           
       2.625859              0.0065590104            0.000497735984           
       2.628500             0.00757192398            0.000531284326           
       2.631140             0.00730224799            0.000529776729           
       2.633780             0.00714322964            0.000523521099           
       2.636421             0.00716326974            0.000537147378           
       2.639061             0.00638832954            0.000477527915           
       2.641702              0.0066381009            0.000498042729           
       2.644342             0.00678010097            0.000505486249           
       2.646982             0.00687916729             0.00050155386           
       2.649623             0.00713231344            0.000535191854           
       2.652263             0.00711912708            0.000529331226           
       2.654904             0.00670362415            0.000514168735           
       2.657544             0.00589525556            0.000454156186           
       2.660184             0.00618556198            0.000492321364           
       2.662825             0.00668195519            0.000523565887           
       2.665465             0.00645353075            0.000497643913           
       2.668105             0.00780777055             0.00057695233           
       2.670746             0.00672415392            0.000494614634           
       2.673386               0.010474674             0.00063620954           
       2.676027             0.00903290755            0.000581322386           
       2.678667             0.00852645332            0.000551094454           
       2.681307              0.0124120843            0.000653313884           
       2.683948              0.0143244926            0.000721109791           
       2.686588              0.0121149753              0.0006521695           
       2.689229              0.0100384363            0.000580092606           
       2.691869             0.00945883025            0.000595137262           
       2.694509             0.00852061199            0.000565161273           
       2.697150             0.00813216876            0.000543170799           
       2.699790             0.00688120849            0.000523810871           
       2.702430             0.00684679034            0.000499446465           
       2.705071             0.00635843077            0.000497337916           
       2.707711             0.00711938128            0.000510771665           
       2.710352             0.00728098939            0.000545785278           
       2.712992             0.00674966328            0.000535210286           
       2.715632             0.00712458586            0.000510174008           
       2.718273             0.00720894242            0.000531847603           
       2.720913             0.00603647612             0.00048529487           
       2.723553             0.00640200216            0.000503125162           
       2.726194             0.00743144624            0.000566641079           
       2.728834             0.00713461281            0.000555469605           
       2.731475             0.00809451031            0.000546048007           
       2.734115             0.00722680612            0.000531964104           
       2.736755             0.00680822744            0.000520578364           
       2.739396             0.00682236522            0.000518099313           
       2.742036             0.00809998005            0.000590817145           
       2.744677             0.00733181461            0.000545396054           
       2.747317             0.00678271401            0.000520834896           
       2.749957             0.00797720141            0.000568801535           
       2.752598             0.00696184973            0.000537137676           
       2.755238             0.00857529898            0.000606901205           
       2.757878             0.00810292801            0.000584790779           
       2.760519             0.00908594247            0.000612681836           
       2.763159             0.00955549755            0.000622035006           
       2.765800             0.00820780833            0.000549398625           
       2.768440             0.00831677165            0.000557107525           
       2.771080             0.00894592647            0.000582618611           
       2.773721             0.00754620425            0.000548904841           
       2.776361             0.00696583631            0.000534650509           
       2.779001             0.00706855211            0.000557752056           
       2.781642             0.00650255247            0.000531013414           
       2.784282             0.00567184929            0.000504091451           
       2.786923             0.00683782599            0.000558358522           
       2.789563             0.00663065871            0.000529555785           
       2.792203             0.00740262259            0.000534514383           
       2.794844             0.00703109558            0.000570929094           
       2.797484              0.0070094127            0.000537986312           
       2.800125             0.00720379997            0.000573483141           
       2.802765             0.00659712847            0.000539362759           
       2.805405             0.00695971358            0.000555861514           
       2.808046             0.00634005538            0.000539865789           
       2.810686             0.00773023386             0.00054776736           
       2.813326             0.00782795975            0.000572564343           
       2.815967             0.00623338566            0.000525457941           
       2.818607             0.00681089766            0.000524144814           
       2.821248             0.00702719837            0.000521349488           
       2.823888             0.00715641435            0.000546126866           
       2.826528             0.00612557871            0.000489324356           
       2.829169             0.00685173405            0.000542068676           
       2.831809             0.00590361587            0.000510012293           
       2.834449             0.00718037096            0.000566019009           
       2.837090             0.00682312872            0.000532911603           
       2.839730             0.00620910005            0.000505885362           
       2.842371             0.00764765724            0.000562248538           
       2.845011             0.00788801872            0.000575567318           
       2.847651             0.00682417484            0.000536006781           
       2.850292             0.00682249642            0.000541200657           
       2.852932             0.00680098127            0.000552122588           
       2.855573             0.00669849406            0.000531523747           
       2.858213             0.00744275629            0.000588356346           
       2.860853             0.00734949781            0.000543866856           
       2.863494             0.00727472169            0.000560226354           
       2.866134             0.00647346169            0.000549283227           
       2.868774             0.00768537763            0.000588198076           
       2.871415             0.00622017174             0.00053740884           
       2.874055             0.00631132174            0.000517446172           
       2.876696             0.00733565396            0.000572948292           
       2.879336             0.00717203553             0.00054601885           
       2.881976             0.00702949006            0.000557556054           
       2.884617             0.00719373785            0.000555748568           
       2.887257             0.00864428145            0.000612352324           
       2.889897             0.00698746403            0.000539219072           
       2.892538             0.00743681283             0.00060941439           
       2.895178             0.00660442106            0.000518839202           
       2.897819             0.00702957718            0.000546035484           
       2.900459             0.00700267905            0.000534388027           
       2.903099             0.00670316603            0.000517483125           
       2.905740             0.00861654849             0.00060188863           
       2.908380             0.00723572058             0.00055782392           
       2.911021             0.00684812128            0.000551500745           
       2.913661             0.00753955062             0.00057849949           
       2.916301             0.00796623515            0.000595210762           
       2.918942             0.00658454164             0.00051761056           
       2.921582             0.00739810712             0.00057405294           
       2.924222             0.00659764751            0.000525198845           
       2.926863             0.00666726638            0.000549933927           
       2.929503             0.00616690509            0.000535162009           
       2.932144              0.0066734291            0.000534404042           
       2.934784             0.00741459825            0.000554062562           
       2.937424              0.0067173849            0.000532784025           
       2.940065             0.00606671832            0.000482984679           
       2.942705             0.00759762981            0.000539821654           
       2.945346              0.0066923884            0.000537676146           
       2.947986             0.00682762513            0.000553755222           
       2.950626             0.00711287022             0.00056202198           
       2.953267             0.00713657146            0.000553861687           
       2.955907             0.00660529083            0.000552755484           
       2.958547             0.00672148767            0.000526399402           
       2.961188             0.00700818056            0.000560771429           
       2.963828             0.00746962674            0.000566309209           
       2.966469             0.00669760441            0.000526055293           
       2.969109             0.00731786962            0.000558022248           
       2.971749             0.00856751696            0.000600024388           
       2.974390              0.0067830371            0.000524646711           
       2.977030             0.00739050908            0.000559874749           
       2.979670             0.00870174814            0.000590925247           
       2.982311             0.00908289981            0.000625734032           
       2.984951             0.00721718135             0.00053049588           
       2.987592             0.00779371263            0.000562319304           
       2.990232             0.00794397119            0.000590416478           
       2.992872             0.00772713986            0.000548496516           
       2.995513             0.00854363817            0.000564249139           
       2.998153              0.0112085391            0.000657143276           
       3.000794              0.0125372415            0.000673181616           
       3.003434              0.0122496124            0.000666419446           
       3.006074              0.0575562986              0.0014243044           
       3.008715               0.131152958              0.0020754575           
       3.011355               0.159106839             0.00220440691           
       3.013995              0.0767722208             0.00153542778           
       3.016636              0.0547749474             0.00127000699           
       3.019276               0.124519188             0.00188225211           
       3.021917               0.505630135             0.00364709704           
       3.024557                1.80551099             0.00677580486           
       3.027197                 1.1040299             0.00516573839           
       3.029838               0.500605527             0.00352782319           
       3.032478               0.259294042             0.00254153805           
       3.035118              0.0727797401             0.00136456235           
       3.037759               0.107401738             0.00165551489           
       3.040399               0.155374407             0.00205398343           
       3.043040               0.581070749              0.0040208016           
       3.045680                0.37160855             0.00302527698           
       3.048320              0.0764329748             0.00140187678           
       3.050961               0.111892485             0.00172605907           
       3.053601              0.0853089696             0.00145155502           
       3.056242              0.0613238023             0.00130849102           
       3.058882              0.0560134755             0.00134147317           
       3.061522              0.0429067711             0.00115191499           
       3.064163              0.0527088606             0.00126065367           
       3.066803                0.11055737             0.00192215047           
       3.069443               0.115677414             0.00205710212           
       3.072084              0.0427015824             0.00121700813           
       3.074724              0.0415517066             0.00134069598           
       3.077365              0.0836231993               0.001968851           
       3.080005              0.0140111417            0.000810476079           
       3.082645              0.0118678759            0.000783602216           
       3.085286              0.0136446479            0.000846843796           
       3.087926             0.00950924948            0.000701512029           
       3.090566              0.0112163372            0.000746496998           
       3.093207              0.0115755041            0.000789146745           
       3.095847              0.0095825257            0.000688197323           
       3.098488             0.00753830155            0.000676821665           
       3.101128             0.00917445123            0.000751469897           
       3.103768             0.00899400075            0.000730044853           
       3.106409             0.00846184302            0.000753627909           
       3.109049             0.00858244074            0.000728354791           
       3.111690             0.00798890307            0.000690654653           
       3.114330             0.00819346245            0.000714320435           
       3.116970             0.00757982232            0.000692325385           
       3.119611              0.0137516206            0.000992604956           
       3.122251               0.024196375             0.00137727376           
       3.124891               0.035338792             0.00167995472           
       3.127532              0.0230804969             0.00132819671           
       3.130172              0.0126048856             0.00099850334           
       3.132813             0.00901339596            0.000831236874           
       3.135453             0.00720248321            0.000736935571           
       3.138093             0.00582377369             0.00071801536           
       3.140734             0.00738954729            0.000746179002           
       3.143374             0.00674315244            0.000753813534           
       3.146014             0.00751559119            0.000856734876           
       3.148655             0.00768152543            0.000805158283           
       3.151295             0.00709918191            0.000824857339           
       3.153936             0.00472602359            0.000650109035           
       3.156576             0.00679744692            0.000769065515           
       3.159216              0.0055312383            0.000697217772           
       3.161857             0.00642203163            0.000748208081           
       3.164497             0.00692696563            0.000816472053           
       3.167138             0.00830718308            0.000923846069           
       3.169778             0.00684657865            0.000824874197           
       3.172418             0.00621931415            0.000778183588           
       3.175059             0.00804935458            0.000784857527           
       3.177699             0.00694189549             0.00077182792           
       3.180339             0.00650988416            0.000800808778           
       3.182980             0.00705035487            0.000861639383           
       3.185620             0.00567470701            0.000787256957           
       3.188261             0.00531057736            0.000775170902           
       3.190901             0.00690083707            0.000812696294           
       3.193541             0.00515724118            0.000738225703           
       3.196182              0.0053878424            0.000786349086           
       3.198822             0.00675539445            0.000880803115           
       3.201463             0.00497542636            0.000742884246           
       3.204103             0.00579916148            0.000797146655           
       3.206743             0.00548313779            0.000775049503           
       3.209384             0.00561788784            0.000847601752           
       3.212024             0.00601405861             0.00081761938           
       3.214664             0.00445609916              0.0008003126           
       3.217305             0.00610042492            0.000890114657           
       3.219945             0.00439819582            0.000777906657           
       3.222586              0.0058798015            0.000856700359           
       3.225226             0.00538112835            0.000909181568           
       3.227866             0.00486113473            0.000789812855           
       3.230507             0.00717100668            0.000994398577           
       3.233147             0.00715763606             0.00100149323           
       3.235787             0.00467029628            0.000827885459           
       3.238428             0.00461066979            0.000887671802           
       3.241068              0.0061049129            0.000955091194           
       3.243709             0.00699500831             0.00105624907           
       3.246349             0.00557551199            0.000859638174           
       3.248989             0.00517880732            0.000978264273           
       3.251630             0.00737525673             0.00112420076           
       3.254270             0.00669372357            0.000957182966           
       3.256911              0.0044006482            0.000846814576           
       3.259551             0.00414302928            0.000884583865           
       3.262191             0.00628961743             0.00111329245           
       3.264832             0.00578115385             0.00111521457           
       3.267472             0.00604031034             0.00106938334           
       3.270112             0.00549524788             0.00112722287           
       3.272753             0.00464398022            0.000948497334           
       3.275393             0.00741365111             0.00122280014           
       3.278034             0.00583980841             0.00108588329           
       3.280674             0.00618743953             0.00121289902           
       3.283314             0.00435455315            0.000910019239           
       3.285955             0.00466445729            0.000971777013           
       3.288595             0.00629659209             0.00125612679           
       3.291235             0.00530935416             0.00118574431           
       3.293876             0.00626783812             0.00130684911           
       3.296516             0.00727762103             0.00135189406           
       3.299157             0.00489163241             0.00109441818           
       3.301797             0.00477090034             0.00123288402           
       3.304437               0.006223353             0.00121995314           
       3.307078             0.00811267577              0.0015343406           
       3.309718             0.00524982211             0.00127399379           
       3.312359             0.00743907883              0.0015169028           
       3.314999              0.0065946668             0.00140619783           
       3.317639             0.00632423104             0.00131699169           
       3.320280             0.00464615314             0.00120017203           
       3.322920             0.00481688858             0.00124259273           
       3.325560             0.00639216802             0.00143240078           
       3.328201             0.00442074685             0.00107282805           
       3.330841             0.00731906047              0.0016800525           
       3.333482             0.00690058658             0.00154196846           
       3.336122             0.00652213066             0.00149977747           
       3.338762             0.00825654013             0.00194926705           
       3.341403             0.00840260866             0.00187900631           
       3.344043             0.00579899082             0.00149866968           
       3.346683             0.00523911445             0.00145428565           
       3.349324              0.0061230727              0.0017676607           
       3.351964             0.00908468208             0.00227684844           
       3.354605             0.00895789678             0.00258569023           
       3.357245             0.00483813266             0.00171423403           
       3.359885             0.00467705351              0.0013489721           
       3.362526             0.00605420638             0.00191930344           
       3.365166             0.00377113242             0.00142873523           
       3.367807             0.00790384725             0.00264713527           
       3.370447             0.00426035187             0.00161214175           
       3.373087             0.00552320633             0.00196292352           
       3.375728             0.00798463337             0.00266363348           
       3.378368             0.00776369908             0.00389808424           
       3.381008             0.00535017862             0.00241256571           
       3.383649              0.0041382442             0.00170210962           
       3.386289             0.00192942714              0.0013755431           
       3.388930             0.00744005474             0.00427259169           
       3.391570             0.00354352276              0.0020858517           
       3.394210             0.00390758065             0.00277197786           
       3.396851             0.00732807845             0.00424624094           
       3.399491             0.00486687144             0.00346143839           
       3.402131             0.00968676702             0.00690903806           
       3.404772           -2.63391825e-05                         0           
       3.407412                       nan                       nan           
       3.410053             0.00922646091             0.00954991897           
       3.412693                       nan                       nan           
       3.415333           -2.64545138e-05                         0           
