################################################################################
# EDF_DataBlockID                     0.Image.Psd
# EDF_BinarySize                      4366944
# EDF_HeaderSize                      2560
# ByteOrder                           LowByteFirst
# DataType                            FloatValue
# Dim_1                               1028
# Dim_2                               1062
# Image                               0
# HeaderID                            EH:000000:000000:000000
# Size                                4366944
# Center_1                            607.5200
# Center_2                            651.5500
# Comment                             Xenocs_Cell_Window - 20251028_20perc_iodine_1.23mg
# DDummy                              0.6
# Date                                2025-10-29T05:40:38
# Delta                               0
# Dummy                               -1.5
# ExposureTime                        360
# Gamma                               0
# Intensity1                          8.49192e-10
# PSize_1                             7.5e-05
# PSize_2                             7.5e-05
# Pressure                            0.0334063
# SampleDistance                      0.450002
# SampleEnvKind                       large
# SampleEnvPN                         ElectroChemical cell
# SampleEnvSN                         1141
# Thickness                           0
# Wavelength                          1.541891e-10
# Wavelength                          1.54189e-10
# aux                                 0
# aux_dial                            0.002375
# beamx                               588.434
# beamx_dial                          588.434
# beamz                               657.808
# beamz_dial                          657.808
# det0x                               0
# det0x_dial                          6.36945
# det0xvd                             0
# det0xvd_dial                        0
# det0y                               450.002
# det0y_dial                          481.635
# det0z                               0
# det0z_dial                          1.23302
# det0zvd                             0
# det0zvd_dial                        0
# mag                                 1.818
# mag_dial                            1.818
# om                                  0.2499
# om_dial                             -0.610199
# phi                                 -0.0120535
# phi_dial                            0
# ry                                  0.599993
# ry_dial                             0.599993
# s1bot                               0.8
# s1bot_dial                          -1.66094
# s1hl                                0.8
# s1hl_dial                           -0.608437
# s1hr                                0.8
# s1hr_dial                           0.970938
# s1top                               0.8
# s1top_dial                          -0.461562
# s2bot                               0.45
# s2bot_dial                          1.36109
# s2hl                                0.45
# s2hl_dial                           -0.83375
# s2hr                                0.45
# s2hr_dial                           -0.118594
# s2top                               0.45
# s2top_dial                          1.44734
# w2theta                             32
# w2theta_dial                        32
# waxsch                              19.2605
# waxsch_dial                         -32.7355
# waxsh                               137.085
# waxsh_dial                          -43.5338
# waxsth                              26.0607
# waxsth_dial                         -19.4086
# waxsz                               67.0407
# waxsz_dial                          -23.7954
# wind                                65.9854
# wind_dial                           66.0041
# wpsi                                124
# wpsi_dial                           124
# wstod                               115
# wstod_dial                          115
# x                                   0
# x_dial                              1.00969
# z                                   0
# z_dial                              13.3172
# CountCutoff                         15302352
# DetectorModel                       Dectris EIGER2 Si 1M, S/N E-02-0362
# ThresholdSetting                    4023.88989258
# Saturation                          0
# FlatField                           Corrected
# BackgroundReductionExtra            0.02
# BackgroundCorrectionConstant        0.0026712
# Detector                            0
# Monitor                             0
# Pil_Roi0                            0
# SumForIntensity1                    3.05709e+08
# TransmittedFlux                     849192
# det                                 0
# mon                                 0
# pilai0                              3.05709e+08
# pilai1                              769703
# pilct0                              5.2993e+08
# pilct1                              769703
# pilroi0                             0
# pilroi1                             0
# sec                                 1
# title                               20251028_20perc_iodine_1.23mg_0_00139.edf
# usaxs0                              0
# Operation                           Azimuthal average I(q)
# Error_model                         ErrorModel.poisson
# Geometrical_correction              True
# Transmission_correction             True
# Thickness_correction                False
# Binning mode                        Uniform
# Binning factor                      1.0
# Psi                                 0.0
# Omega                               0.2499
# MaskInvalidPixels                   True
# DetectorEdge                        3
# MaskFiles                           ['20251028_20perc_iodine_1.23mg_0_00012_mask.edf']
################################################################################
    q(A⁻¹)                Intensity(a.u.)            Sigma_I(a.u.)            
       0.000340                371467.804                120.753284           
       0.001019                359489.861                72.7440259           
       0.001698                350297.869                50.7759193           
       0.002377                330705.642                44.1270498           
       0.003056                307231.265                35.9461886           
       0.003735                253719.733                 28.808797           
       0.004415                205557.226                25.9307141           
       0.005094                153794.429                19.4244692           
       0.005773                101563.012                14.6141446           
       0.006452                59170.2722                10.6877592           
       0.007131                32372.0736                7.65823263           
       0.007810                16180.0681                5.37301892           
       0.008490                8064.12802                3.36232311           
       0.009169                3849.64807                2.29594729           
       0.009848                1180.90179                1.22945846           
       0.010527                456.449419                0.76436987           
       0.011206                115.698809               0.367286684           
       0.011885                53.6241256               0.232321241           
       0.012564                24.8910832               0.162503408           
       0.013244                17.2450502               0.126454061           
       0.013923                12.7076674               0.110301935           
       0.014602                9.56006763              0.0887290065           
       0.015281                7.69708781              0.0810451874           
       0.015960                6.13359844              0.0718286342           
       0.016639                5.10075806              0.0618545885           
       0.017319                4.26151368              0.0556582158           
       0.017998                3.55052474              0.0486032121           
       0.018677                3.13652739              0.0473138612           
       0.019356                2.53983283              0.0420693227           
       0.020035                 2.1987166              0.0367232272           
       0.020714                1.91394371              0.0346252587           
       0.021394                1.65301788              0.0304464789           
       0.022073                1.46490734              0.0298203501           
       0.022752                1.33400322              0.0272219746           
       0.023431                 1.1095046              0.0240981129           
       0.024110                1.04338947                0.02436399           
       0.024789               0.922699387              0.0212782302           
       0.025469               0.832419401              0.0208270881           
       0.026148               0.770375985              0.0188253804           
       0.026827               0.679023757              0.0179568328           
       0.027506               0.602100477              0.0171529873           
       0.028185               0.567894316              0.0158863949           
       0.028864                0.53050298              0.0152683398           
       0.029544               0.470813674              0.0139482011           
       0.030223               0.433602386              0.0135775949           
       0.030902               0.445646633              0.0138908416           
       0.031581               0.406566393              0.0126124951           
       0.032260               0.372874783              0.0122844123           
       0.032939               0.322465611              0.0110151338           
       0.033619               0.284356829               0.010495815           
       0.034298               0.281842738              0.0101688758           
       0.034977               0.260437196             0.00958299455           
       0.035656               0.248988927             0.00961798945           
       0.036335               0.241566565             0.00918815496           
       0.037014               0.212567409              0.0086447364           
       0.037693               0.182699322             0.00770976266           
       0.038373               0.184329504             0.00782007831           
       0.039052               0.174109357              0.0076325314           
       0.039731               0.167433439              0.0073103442           
       0.040410               0.164805386             0.00720411906           
       0.041089               0.157231697             0.00692641445           
       0.041768                0.14399058             0.00666298042           
       0.042448               0.122066326             0.00608718313           
       0.043127               0.138076486             0.00632117902           
       0.043806               0.124837666             0.00605532186           
       0.044485               0.129915821              0.0060503522           
       0.045164               0.119217157             0.00591010653           
       0.045843               0.115852218             0.00558793866           
       0.046523               0.112449175             0.00552426735           
       0.047202               0.104032021             0.00535062229           
       0.047881               0.105245184             0.00527794702           
       0.048560              0.0989508116             0.00516433194           
       0.049239               0.104545264             0.00509693993           
       0.049918              0.0935496665             0.00491571317           
       0.050598              0.0912333581             0.00478164221           
       0.051277              0.0849274623             0.00459879479           
       0.051956              0.0774568724             0.00436429524           
       0.052635              0.0882783661             0.00456032139           
       0.053314              0.0879993791             0.00468622902           
       0.053993              0.0769004115              0.0042605942           
       0.054673              0.0780283709             0.00419612674           
       0.055352               0.077018536             0.00423012023           
       0.056031              0.0676296094             0.00388062033           
       0.056710              0.0800624328             0.00432574746           
       0.057389              0.0736052846             0.00399961701           
       0.058068              0.0664767184             0.00384018928           
       0.058748              0.0691489858             0.00396547014           
       0.059427              0.0694234753              0.0039060608           
       0.060106              0.0696170282             0.00394852301           
       0.060785              0.0639504487             0.00367102487           
       0.061464              0.0564401431             0.00353186032           
       0.062143              0.0636201613             0.00371169801           
       0.062822              0.0637101707             0.00367073599           
       0.063502              0.0611689898             0.00359035843           
       0.064181              0.0590016555             0.00348894252           
       0.064860              0.0516680942             0.00331465109           
       0.065539              0.0562674899             0.00342521421           
       0.066218              0.0532635395             0.00326117387           
       0.066897              0.0555361575             0.00335572673           
       0.067577              0.0471014051             0.00312009665           
       0.068256              0.0414737382             0.00299969452           
       0.068935              0.0554459127             0.00341228671           
       0.069614              0.0461028395             0.00314250895           
       0.070293              0.0418846281             0.00302291781           
       0.070972              0.0458941299             0.00314113093           
       0.071652               0.048819909             0.00324565096           
       0.072331              0.0425131998             0.00297478287           
       0.073010              0.0398817029             0.00294707881           
       0.073689              0.0398692338             0.00293042599           
       0.074368              0.0442310533             0.00308095173           
       0.075047               0.042252372             0.00297888366           
       0.075727              0.0414860766             0.00293351607           
       0.076406              0.0408304217             0.00296830889           
       0.077085              0.0381230821             0.00281460845           
       0.077764              0.0421076187             0.00294767687           
       0.078443              0.0372222402             0.00278856889           
       0.079122              0.0410155912             0.00289909419           
       0.079802              0.0358651203             0.00273971765           
       0.080481              0.0351002173             0.00261892013           
       0.081160              0.0358805398             0.00270220553           
       0.081839              0.0398376794             0.00280173317           
       0.082518              0.0355254605             0.00264798317           
       0.083197              0.0337144411             0.00253952424           
       0.083876              0.0292341989             0.00232548142           
       0.084556              0.0322732427             0.00251131904           
       0.085235               0.032911169             0.00248702059           
       0.085914              0.0303465045             0.00241135162           
       0.086593              0.0344525953              0.0025527777           
       0.087272               0.029400818             0.00232487209           
       0.087951              0.0306180213             0.00242610182           
       0.088631              0.0315507139             0.00237889338           
       0.089310              0.0323389733             0.00245950834           
       0.089989              0.0289090561             0.00229823777           
       0.090668               0.027459646             0.00226460798           
       0.091347               0.031211419             0.00242787928           
       0.092026              0.0341114253             0.00242607752           
       0.092706              0.0268940455             0.00223237477           
       0.093385              0.0339628004             0.00247013045           
       0.094064              0.0312980179             0.00239884362           
       0.094743              0.0312665051             0.00236109783           
       0.095422              0.0283776988             0.00222429732           
       0.096101              0.0303653935             0.00234826588           
       0.096781              0.0277172581             0.00221141174           
       0.097460              0.0299604726             0.00223644009           
       0.098139              0.0301540396             0.00222638912           
       0.098818              0.0254148017             0.00201878565           
       0.099497               0.031146244             0.00223944523           
       0.100176              0.0266117755             0.00201569159           
       0.100856              0.0272046362             0.00203671487           
       0.101535              0.0289385336             0.00209656643           
       0.102214              0.0281811381             0.00206896108           
       0.102893              0.0275304534              0.0020216365           
       0.103572              0.0264271138             0.00195145084           
       0.104251              0.0222385511             0.00179674903           
       0.104931              0.0235299096             0.00183135424           
       0.105610              0.0230275469             0.00181942722           
       0.106289              0.0257310131             0.00189125949           
       0.106968              0.0245415543             0.00185251055           
       0.107647              0.0238443811             0.00182710398           
       0.108326              0.0256650722             0.00187021844           
       0.109005              0.0253448049             0.00184681959           
       0.109685              0.0260554676             0.00185152864           
       0.110364              0.0221364283             0.00172599551           
       0.111043              0.0248589634             0.00182180555           
       0.111722              0.0235862891             0.00175286852           
       0.112401              0.0233257292             0.00174800703           
       0.113080              0.0278985179             0.00188977715           
       0.113760              0.0238906535             0.00177798471           
       0.114439              0.0215220545             0.00166346275           
       0.115118              0.0220638717             0.00167157159           
       0.115797               0.023149859             0.00172807711           
       0.116476              0.0238173899             0.00172658024           
       0.117155              0.0240490365             0.00174894932           
       0.117835              0.0211511252               0.001607587           
       0.118514              0.0225763953             0.00168192666           
       0.119193              0.0219111985             0.00165697498           
       0.119872              0.0218559064             0.00163418647           
       0.120551              0.0233939032              0.0016794458           
       0.121230              0.0196115208             0.00152222098           
       0.121910              0.0226386176             0.00165129325           
       0.122589              0.0246365991             0.00172439566           
       0.123268              0.0230823932              0.0016367813           
       0.123947              0.0232533719             0.00165345699           
       0.124626              0.0212652431             0.00156186083           
       0.125305              0.0224839752              0.0016138743           
       0.125985              0.0207205971             0.00153727388           
       0.126664              0.0214711555             0.00154996244           
       0.127343              0.0202647623             0.00152324341           
       0.128022              0.0177096988             0.00141305889           
       0.128701              0.0178372561              0.0014107513           
       0.129380              0.0232788177             0.00159145078           
       0.130059              0.0220498363             0.00155246869           
       0.130739              0.0198026695             0.00148158108           
       0.131418              0.0209186388             0.00151849248           
       0.132097              0.0210323189             0.00150308572           
       0.132776              0.0186975501             0.00141080627           
       0.133455              0.0192262064             0.00144172652           
       0.134134              0.0208311235             0.00149591594           
       0.134814              0.0189268229             0.00141120998           
       0.135493              0.0212569308             0.00150160976           
       0.136172               0.018862462             0.00140383164           
       0.136851              0.0217384385             0.00151582305           
       0.137530              0.0158786133              0.0012647304           
       0.138209              0.0192774037             0.00140988953           
       0.138889              0.0193858294              0.0014200812           
       0.139568              0.0187878149             0.00139740207           
       0.140247              0.0182024857             0.00137365947           
       0.140926              0.0192200517             0.00137117309           
       0.141605               0.021188449             0.00147625144           
       0.142284              0.0202592163             0.00141959748           
       0.142964              0.0196970637             0.00140511723           
       0.143643              0.0176714986             0.00132922815           
       0.144322              0.0188295609             0.00134337965           
       0.145001              0.0194230226             0.00139239102           
       0.145680              0.0212558555             0.00142214496           
       0.146359              0.0178856213             0.00130930952           
       0.147039              0.0219782525             0.00146334843           
       0.147718              0.0179656312              0.0013012065           
       0.148397              0.0172755893             0.00129580059           
       0.149076              0.0186215282             0.00130359732           
       0.149755              0.0183950107             0.00131564995           
       0.150434              0.0197013647             0.00136212105           
       0.151114              0.0198843524             0.00136086324           
       0.151793              0.0194100879             0.00134454869           
       0.152472              0.0179931174              0.0012716746           
       0.153151               0.019648854             0.00134174484           
       0.153830              0.0199011974             0.00134049487           
       0.154509              0.0191940363             0.00131097046           
       0.155188              0.0196081844             0.00132454858           
       0.155868              0.0181036518             0.00126366153           
       0.156547              0.0168988177             0.00122873044           
       0.157226              0.0171014701             0.00120588544           
       0.157905              0.0173681946             0.00122546051           
       0.158584              0.0166293485             0.00119693313           
       0.159263              0.0192831968             0.00129365009           
       0.159943               0.019117252             0.00128903237           
       0.160622              0.0181546068             0.00123191664           
       0.161301              0.0175046334             0.00122584259           
       0.161980              0.0193153453             0.00126579292           
       0.162659              0.0169754698             0.00119980175           
       0.163338              0.0190326997             0.00126006957           
       0.164018              0.0162741979             0.00115906741           
       0.164697              0.0169495669             0.00119806173           
       0.165376              0.0161187199             0.00114280248           
       0.166055              0.0173879085             0.00119477011           
       0.166734              0.0203380373             0.00128636848           
       0.167413              0.0169350414              0.0011746486           
       0.168093              0.0172655666             0.00119727544           
       0.168772              0.0154893533             0.00110085463           
       0.169451              0.0186558854             0.00123037908           
       0.170130              0.0152405424             0.00109746822           
       0.170809               0.017969838             0.00120591307           
       0.171488              0.0156347002             0.00111458058           
       0.172168                0.01743649             0.00116574592           
       0.172847              0.0175980128             0.00118651687           
       0.173526              0.0159033183             0.00110642275           
       0.174205              0.0159210759             0.00111213878           
       0.174884              0.0172466529             0.00115147912           
       0.175563              0.0164873348             0.00113065267           
       0.176243               0.015346328             0.00110174453           
       0.176922              0.0173022847             0.00113936433           
       0.177601              0.0174699479             0.00115745326           
       0.178280              0.0174320107             0.00114328959           
       0.178959               0.015290775             0.00107938519           
       0.179638              0.0175440031             0.00115285216           
       0.180317              0.0148959362             0.00105455144           
       0.180997              0.0181634551             0.00117080342           
       0.181676              0.0183103468             0.00116297615           
       0.182355              0.0179914886             0.00115972924           
       0.183034              0.0157388337             0.00106729066           
       0.183713              0.0158604998             0.00108445607           
       0.184392              0.0164268104             0.00110331306           
       0.185072              0.0158148358             0.00107022864           
       0.185751              0.0171518063             0.00111764961           
       0.186430              0.0177490708             0.00112897941           
       0.187109              0.0173902974             0.00112995622           
       0.187788              0.0153039589             0.00105739679           
       0.188467              0.0145982317              0.0010205072           
       0.189147              0.0169049193             0.00110929855           
       0.189826              0.0165353848             0.00107770621           
       0.190505              0.0143382111              0.0010200738           
       0.191184              0.0143311237             0.00100512369           
       0.191863              0.0181514563             0.00113357193           
       0.192542              0.0157029588             0.00106429104           
       0.193222              0.0132523746            0.000955813554           
       0.193901              0.0154620716              0.0010462672           
       0.194580              0.0164822624             0.00106133639           
       0.195259              0.0172941504             0.00109964785           
       0.195938              0.0155450641             0.00104504696           
       0.196617              0.0164096644             0.00105872835           
       0.197297               0.016497818             0.00106590283           
       0.197976              0.0147650447            0.000992885215           
       0.198655              0.0142899139            0.000987448527           
       0.199334              0.0157529516             0.00102762279           
       0.200013              0.0138020986            0.000961356467           
       0.200692              0.0147273963            0.000999031826           
       0.201371              0.0162453945             0.00103743912           
       0.202051              0.0148714317            0.000995685832           
       0.202730              0.0154922346              0.0010061054           
       0.203409              0.0141012775            0.000966320691           
       0.204088              0.0152020019              0.0010022171           
       0.204767               0.016538655             0.00103985527           
       0.205446              0.0163356243             0.00103547233           
       0.206126              0.0168422774             0.00103712285           
       0.206805              0.0147181513            0.000987292915           
       0.207484              0.0164066242             0.00102364747           
       0.208163              0.0135665379            0.000936434104           
       0.208842              0.0144523736            0.000963904121           
       0.209521               0.016547023             0.00102282147           
       0.210201               0.017150312             0.00105292021           
       0.210880              0.0150191386            0.000965995395           
       0.211559              0.0173932398              0.0010549135           
       0.212238              0.0131657401            0.000913132274           
       0.212917              0.0148196407            0.000965191075           
       0.213596              0.0158999282             0.00100566285           
       0.214276              0.0146784335            0.000946130883           
       0.214955              0.0151940107            0.000982846697           
       0.215634              0.0159176913            0.000998770804           
       0.216313               0.015211845            0.000974324971           
       0.216992              0.0154668078            0.000982210235           
       0.217671              0.0146744352            0.000950239503           
       0.218351              0.0147420324            0.000961740471           
       0.219030              0.0149970628            0.000954712077           
       0.219709              0.0156080688             0.00098004159           
       0.220388              0.0131137938            0.000897172206           
       0.221067              0.0141872175             0.00093390871           
       0.221746              0.0148836155            0.000955575359           
       0.222426              0.0146136559            0.000932718706           
       0.223105              0.0149751633            0.000957047956           
       0.223784              0.0157391615            0.000971425193           
       0.224463              0.0147104745            0.000946622405           
       0.225142              0.0149797362            0.000940132261           
       0.225821              0.0141314046            0.000916801636           
       0.226500              0.0152057294            0.000957059636           
       0.227180               0.015151554            0.000940634768           
       0.227859               0.015331463            0.000950447635           
       0.228538              0.0143221456            0.000909405207           
       0.229217              0.0150352364            0.000939145005           
       0.229896              0.0152632184            0.000945782886           
       0.230575              0.0146533675            0.000911923465           
       0.231255              0.0133607383             0.00088380988           
       0.231934              0.0155991422            0.000948454969           
       0.232613              0.0152360184            0.000940808959           
       0.233292                0.01357402            0.000879434408           
       0.233971               0.015454459            0.000937936402           
       0.234650              0.0152941028             0.00094403268           
       0.235330              0.0147275954            0.000918294309           
       0.236009              0.0144880946            0.000908833791           
       0.236688              0.0155776058            0.000939014246           
       0.237367               0.014309283            0.000901282796           
       0.238046              0.0150958415            0.000932241861           
       0.238725               0.014680909            0.000905157112           
       0.239405              0.0142969386            0.000898780733           
       0.240084              0.0146133378            0.000902885503           
       0.240763              0.0147434115             0.00091557869           
       0.241442              0.0133785324             0.00085988028           
       0.242121              0.0141437146            0.000885797592           
       0.242800              0.0159061385            0.000943813795           
       0.243480              0.0135400321            0.000866713421           
       0.244159              0.0152157014            0.000919224843           
       0.244838              0.0145000978            0.000882583125           
       0.245517              0.0152546528            0.000918277532           
       0.246196              0.0151670584            0.000916078802           
       0.246875               0.013079351            0.000838839134           
       0.247554              0.0137815624            0.000869813945           
       0.248234              0.0150501166            0.000895182065           
       0.248913              0.0144429339             0.00088677525           
       0.249592              0.0143122029            0.000874364516           
       0.250271              0.0133157349            0.000840928269           
       0.250950              0.0128018316            0.000829591528           
       0.251629              0.0150131564            0.000890752893           
       0.252309              0.0131043475             0.00083389136           
       0.252988              0.0138681233            0.000843071726           
       0.253667              0.0147276135            0.000878955088           
       0.254346              0.0138295757            0.000851560566           
       0.255025              0.0137197042            0.000846313175           
       0.255704              0.0133775403            0.000831865641           
       0.256384                0.01322458            0.000824234779           
       0.257063              0.0123584271            0.000801328644           
       0.257742              0.0139194589            0.000844540775           
       0.258421              0.0137161901            0.000836737881           
       0.259100              0.0139060415            0.000843978002           
       0.259779              0.0137772824            0.000839349508           
       0.260459               0.012719977            0.000808083516           
       0.261138              0.0118591545            0.000765012953           
       0.261817              0.0141012366            0.000851039698           
       0.262496              0.0126623301            0.000798542126           
       0.263175              0.0132186456            0.000817647861           
       0.263854              0.0131544166            0.000811869491           
       0.264534              0.0135134584            0.000815846648           
       0.265213              0.0141427044            0.000847777953           
       0.265892              0.0119593479            0.000769608062           
       0.266571              0.0118584188            0.000764610931           
       0.267250               0.012495829            0.000786213747           
       0.267929              0.0130578088            0.000802874571           
       0.268609              0.0141542317            0.000840479463           
       0.269288              0.0126638657            0.000781793241           
       0.269967              0.0117159186            0.000760065669           
       0.270646              0.0132039148            0.000803401913           
       0.271325              0.0123893867            0.000779526982           
       0.272004              0.0109248449            0.000724707847           
       0.272683              0.0132520367            0.000799158504           
       0.273363              0.0111495554             0.00073770286           
       0.274042              0.0115928105            0.000747785699           
       0.274721              0.0117586228            0.000752668006           
       0.275400              0.0114553679            0.000737980198           
       0.276079              0.0106802512            0.000716621722           
       0.276758              0.0122622557            0.000777554341           
       0.277438              0.0110871569            0.000731060069           
       0.278117              0.0127053475            0.000796823923           
       0.278796              0.0113248279            0.000744653335           
       0.279475              0.0117140146            0.000769851412           
       0.280154              0.0114662908            0.000750711601           
       0.280833              0.0124281073            0.000786316195           
       0.281513              0.0136014793            0.000835503748           
       0.282192               0.010753298            0.000730218837           
       0.282871              0.0112989378            0.000753746318           
       0.283550              0.0116827916            0.000770550067           
       0.284229              0.0114775954            0.000774970669           
       0.284908              0.0106807012             0.00075546877           
       0.285588              0.0111662753            0.000763405291           
       0.286267              0.0106085267            0.000756009527           
       0.286946              0.0115113065            0.000782399513           
       0.287625              0.0104956821            0.000759808163           
       0.288304             0.00923338854            0.000703116158           
       0.288983              0.0103815947            0.000754994476           
       0.289663             0.00905206056            0.000709120295           
       0.290342              0.0102154436             0.00074930187           
       0.291021              0.0098912956            0.000741290212           
       0.291700              0.0101221832            0.000740095815           
       0.292379              0.0110532122            0.000791091297           
       0.293058             0.00961688092            0.000735116035           
       0.293738             0.00967066622            0.000730978534           
       0.294417              0.0111985243            0.000795748095           
       0.295096              0.0109600354            0.000778574936           
       0.295775             0.00931454869            0.000728715047           
       0.296454             0.00933596419             0.00072011594           
       0.297133              0.0123410229            0.000831856116           
       0.297812             0.00945767997            0.000731876328           
       0.298492             0.00960410454            0.000738945011           
       0.299171              0.0101497433            0.000758208745           
       0.299850             0.00984847592            0.000741771224           
       0.300529             0.00847741507            0.000695956254           
       0.301208              0.0096144409            0.000742963967           
       0.301887             0.00918176373            0.000725190994           
       0.302567             0.00988694684            0.000748755249           
       0.303246             0.00840241269            0.000694763499           
       0.303925               0.008766961            0.000718787092           
       0.304604             0.00984087035             0.00074509577           
       0.305283              0.0107047797            0.000788638568           
       0.305962             0.00930574729            0.000730858289           
       0.306642              0.0108133412            0.000798539052           
       0.307321             0.00910500974            0.000730411172           
       0.308000             0.00928420327            0.000728821152           
       0.308679              0.0089829752            0.000732425185           
       0.309358              0.0089159618             0.00071981754           
       0.310037             0.00871878663            0.000713399676           
       0.310717             0.00909764095            0.000728033289           
       0.311396             0.00810541296            0.000691794889           
       0.312075             0.00808397738            0.000699640676           
       0.312754             0.00799339607             0.00068179183           
       0.313433             0.00795249736            0.000685959783           
       0.314112             0.00782419986            0.000680247813           
       0.314792             0.00806829508            0.000695655402           
       0.315471             0.00921560754            0.000734278862           
       0.316150             0.00923406047            0.000741816115           
       0.316829             0.00861441567            0.000721225847           
       0.317508             0.00912158943            0.000733825454           
       0.318187             0.00802615771            0.000697433736           
       0.318866             0.00769373245            0.000673639375           
       0.319546             0.00805754385            0.000699716161           
       0.320225             0.00847995141            0.000717836831           
       0.320904             0.00814508381            0.000692642738           
       0.321583             0.00803330243            0.000703030561           
       0.322262             0.00808978514            0.000694805273           
       0.322941             0.00921979548            0.000751249065           
       0.323621             0.00824350231            0.000706025955           
       0.324300             0.00779657542            0.000687158595           
       0.324979             0.00811717539            0.000702412045           
       0.325658             0.00802681301            0.000699758572           
       0.326337             0.00658554915            0.000634657114           
       0.327016             0.00931655606            0.000750075345           
       0.327696             0.00756655376            0.000683486135           
       0.328375             0.00793528647            0.000694035468           
       0.329054             0.00723524764            0.000666309774           
       0.329733             0.00732519713            0.000672887222           
       0.330412             0.00757461375            0.000678640536           
       0.331091             0.00730383011             0.00067848797           
       0.331771             0.00624463092             0.00061092587           
       0.332450             0.00796802845             0.00070349607           
       0.333129               0.006888983            0.000652441681           
       0.333808             0.00728757932            0.000671938334           
       0.334487             0.00635686074            0.000630541073           
       0.335166             0.00689784255             0.00064721068           
       0.335846               0.006466416            0.000637656097           
       0.336525              0.0068220123            0.000648487822           
       0.337204             0.00785348403             0.00069761182           
       0.337883             0.00664364221            0.000642482142           
       0.338562               0.007215446            0.000673275659           
       0.339241             0.00748329078            0.000686942952           
       0.339921             0.00692676459            0.000649822491           
       0.340600             0.00599550324            0.000616045045           
       0.341279             0.00655613242            0.000637305792           
       0.341958             0.00706956842            0.000671127114           
       0.342637             0.00710247863            0.000663184249           
       0.343316             0.00634551649            0.000628663567           
       0.343995             0.00528973534            0.000583385175           
       0.344675             0.00587986447            0.000603762978           
       0.345354              0.0061515883            0.000621629696           
       0.346033              0.0074097498            0.000680465806           
       0.346712             0.00607463979             0.00062005062           
       0.347391             0.00538005725             0.00058713923           
       0.348070             0.00727321557            0.000672975179           
       0.348750             0.00614827808            0.000627686799           
       0.349429             0.00716967596             0.00066907198           
       0.350108             0.00663581907            0.000651426193           
       0.350787             0.00668716394            0.000642831835           
       0.351466             0.00558880372            0.000598498753           
       0.352145             0.00603612117            0.000622505276           
       0.352825             0.00712125322            0.000673086153           
       0.353504             0.00634631005            0.000635252767           
       0.354183             0.00688659382            0.000654117181           
       0.354862             0.00696319717            0.000673029417           
       0.355541             0.00580902781            0.000606675042           
       0.356220             0.00538896425            0.000585432214           
       0.356900             0.00529806324            0.000585987268           
       0.357579             0.00573836706            0.000602373114           
       0.358258             0.00572666725            0.000610086165           
       0.358937             0.00599540019            0.000612500806           
       0.359616             0.00559269346            0.000599833543           
       0.360295             0.00458219254            0.000543398648           
       0.360975             0.00567890596            0.000602355484           
       0.361654             0.00638805361            0.000642152324           
       0.362333             0.00503602322            0.000567262043           
       0.363012             0.00603483393            0.000628962354           
       0.363691             0.00654126205            0.000641902221           
       0.364370             0.00452061003            0.000540245481           
       0.365050             0.00560179384            0.000598171914           
       0.365729             0.00487928662            0.000563588356           
       0.366408             0.00503319325            0.000573675365           
       0.367087             0.00530796921             0.00057967768           
       0.367766             0.00528133569            0.000590269294           
       0.368445             0.00547420863            0.000590281258           
       0.369124             0.00485641532            0.000560343826           
       0.369804             0.00425784386            0.000523836883           
       0.370483             0.00462021841            0.000548060532           
       0.371162             0.00520167845            0.000584897361           
       0.371841             0.00582263149            0.000608035051           
       0.372520             0.00514967435             0.00058328125           
       0.373199             0.00611791426            0.000628159462           
       0.373879             0.00529123173            0.000590943442           
       0.374558             0.00519192952            0.000576830019           
       0.375237             0.00467565522             0.00054829722           
       0.375916             0.00448907962            0.000547538552           
       0.376595             0.00506370092            0.000570161574           
       0.377274             0.00491267165            0.000570583848           
       0.377954             0.00513578161            0.000574231992           
       0.378633             0.00481540826            0.000563059863           
       0.379312             0.00408488792            0.000518463795           
       0.379991             0.00476091848            0.000556826727           
       0.380670             0.00346073107             0.00048313402           
       0.381349             0.00478842453            0.000560143204           
       0.382029             0.00446505567            0.000548649152           
       0.382708             0.00380160504            0.000495194533           
       0.383387             0.00386516264            0.000510632522           
       0.384066             0.00517964303            0.000585694673           
       0.384745              0.0039526495            0.000513652504           
       0.385424             0.00470673741            0.000562416159           
       0.386104             0.00341153717            0.000473529186           
       0.386783             0.00386518676            0.000514932764           
       0.387462             0.00483159233             0.00056139672           
       0.388141             0.00344336377             0.00048150166           
       0.388820             0.00379238919            0.000501662922           
       0.389499             0.00457257759            0.000553954516           
       0.390178             0.00386771639            0.000511501481           
       0.390858             0.00426637917            0.000532869471           
       0.391537             0.00347418917            0.000485769302           
       0.392216             0.00458760055            0.000551211416           
       0.392895             0.00461859857            0.000554933756           
       0.393574              0.0034512572            0.000478516425           
       0.394253             0.00462682144            0.000556543286           
       0.394933             0.00359063702            0.000495881578           
       0.395612             0.00354847483            0.000478642325           
       0.396291             0.00436828834            0.000541874544           
       0.396970             0.00424069914            0.000529172018           
       0.397649             0.00379225805            0.000501951962           
       0.398328             0.00514653569            0.000582180357           
       0.399008             0.00439361671            0.000536742848           
       0.399687             0.00443169683            0.000541160245           
       0.400366             0.00407702636            0.000517068821           
       0.401045             0.00353725625            0.000480715307           
       0.401724             0.00399645145            0.000511818851           
       0.402403             0.00452569765            0.000548900434           
       0.403083              0.0037584317            0.000492999163           
       0.403762             0.00412105879            0.000518780411           
       0.404441               0.003512422            0.000481991934           
       0.405120             0.00341609276            0.000473777849           
       0.405799             0.00540431928            0.000593320842           
       0.406478             0.00384364564            0.000500382006           
       0.407158              0.0040264867             0.00051118407           
       0.407837             0.00368901269            0.000493611968           
       0.408516             0.00509024497            0.000574784842           
       0.409195             0.00406852858            0.000519700973           
       0.409874             0.00382423365            0.000510866991           
       0.410553             0.00371527207            0.000508952051           
       0.411233             0.00298606498            0.000453915495           
       0.411912             0.00321596789            0.000477740018           
       0.412591             0.00304736498            0.000468126063           
       0.413270             0.00385933513             0.00052431064           
       0.413949             0.00294579517            0.000463075031           
       0.414628             0.00293576535            0.000461456013           
       0.415307             0.00301350396            0.000472726269           
       0.415987             0.00244599223            0.000422384269           
       0.416666             0.00399807724            0.000536765922           
       0.417345             0.00346159318            0.000507796686           
       0.418024             0.00265249983            0.000444519273           
       0.418703             0.00338043314            0.000500899395           
       0.419382             0.00254407624            0.000432410222           
       0.420062             0.00381255806            0.000530828485           
       0.420741             0.00309862679            0.000481098606           
       0.421420             0.00365765186            0.000524680099           
       0.422099             0.00216176411            0.000403374879           
       0.422778             0.00363015522            0.000525548485           
       0.423457             0.00290606989             0.00047310041           
       0.424137              0.0027293952             0.00045102192           
       0.424816             0.00223257948            0.000416438425           
       0.425495             0.00292655976            0.000476337735           
       0.426174             0.00262321922            0.000451134066           
       0.426853              0.0015168676             0.00034096995           
       0.427532             0.00271322946            0.000459877254           
       0.428212             0.00329328028            0.000510000333           
       0.428891              0.0019492936            0.000391476605           
       0.429570             0.00195877709            0.000392696054           
       0.430249             0.00217519809            0.000411673324           
       0.430928             0.00267737225            0.000466715503           
       0.431607             0.00140629993            0.000332437312           
       0.432287              0.0019059672            0.000389850118           
       0.432966             0.00211742162            0.000414521434           
       0.433645             0.00219643083            0.000422625187           
       0.434324             0.00240156072            0.000439255877           
       0.435003             0.00224878583            0.000425780695           
       0.435682             0.00278532164            0.000477745916           
       0.436361             0.00301901862            0.000496718772           
       0.437041             0.00147079997            0.000346237827           
       0.437720             0.00255882942            0.000458889493           
       0.438399             0.00267358842            0.000471514557           
       0.439078             0.00214256906            0.000434339983           
       0.439757             0.00253935555            0.000469937849           
       0.440436             0.00222457926            0.000449760659           
       0.441116             0.00239436046            0.000474238081           
       0.441795             0.00313727008            0.000543501233           
       0.442474             0.00184711923            0.000418197432           
       0.443153             0.00195989569            0.000440824698           
       0.443832             0.00166917355            0.000407503749           
       0.444511             0.00272896494            0.000518702768           
       0.445191             0.00237013885            0.000495157649           
       0.445870             0.00278433611            0.000536697149           
       0.446549             0.00157701751            0.000408171249           
       0.447228             0.00144543919            0.000388564464           
       0.447907             0.00405901048            0.000658951551           
       0.448586             0.00203053988            0.000477281955           
       0.449266             0.00243200044            0.000517532766           
       0.449945             0.00273461881            0.000546549358           
       0.450624              0.0019589598            0.000469933412           
       0.451303             0.00256704396            0.000544921183           
       0.451982             0.00184173381            0.000458709114           
       0.452661             0.00204184724            0.000491985226           
       0.453341             0.00194099635            0.000481362322           
       0.454020             0.00291503025            0.000590802852           
       0.454699              0.0024717063            0.000548994502           
       0.455378             0.00247384663             0.00054952689           
       0.456057            0.000943507731               0.000345407           
       0.456736            0.000805546279            0.000318161233           
       0.457416             0.00231641725            0.000539538872           
       0.458095             0.00252192589            0.000571111075           
       0.458774             0.00100842661            0.000365913554           
       0.459453             0.00209590406            0.000530184349           
       0.460132             0.00186322698            0.000489093933           
       0.460811             0.00146811803            0.000450348035           
       0.461490             0.00117522643            0.000398831059           
       0.462170              0.0014870675            0.000455636532           
       0.462849             0.00135753188            0.000438163214           
       0.463528             0.00262830055            0.000608261227           
       0.464207             0.00142420326            0.000456131067           
       0.464886             0.00111864455            0.000401101963           
       0.465565             0.00172999866            0.000504285386           
       0.466245             0.00159459177            0.000485650494           
       0.466924             0.00137771626            0.000462081431           
       0.467603            0.000716992602            0.000326275988           
       0.468282             0.00138442017            0.000464130388           
       0.468961            0.000779015518            0.000350447344           
       0.469640             0.00172873468            0.000524134789           
       0.470320             0.00189358699            0.000548935747           
       0.470999              0.0014495135            0.000484804962           
       0.471678             0.00132744185            0.000468401426           
       0.472357             0.00100790843            0.000409290562           
       0.473036             0.00034514525            0.000241020975           
       0.473715             0.00154620661            0.000514128705           
       0.474395             0.00109207209            0.000438052287           
       0.475074            0.000734334143            0.000359219421           
       0.475753             0.00121973266            0.000458967146           
       0.476432            0.000237650606            0.000209965837           
       0.477111             0.00110443183            0.000447161865           
       0.477790             0.00167638103            0.000553854794           
       0.478470             0.00170459987            0.000565882655           
       0.479149            -0.00014163291                         0           
       0.479828            0.000434363709            0.000287930255           
       0.480507            0.000997003883            0.000439740346           
       0.481186             0.00127166561            0.000507826844           
       0.481865            0.000265410899            0.000229127388           
       0.482545            8.40022394e-05            0.000130417143           
       0.483224            0.000293573453             0.00024547377           
       0.483903            0.000304024268            0.000253739682           
       0.484582           -0.000106372874                         0           
       0.485261           -0.000116857343                         0           
       0.485940            0.000129920606            0.000170926544           
       0.486619            0.000103876152            0.000151155719           
       0.487299            0.000349898571            0.000281842551           
       0.487978           -0.000101113734                         0           
       0.488657            0.000379892667            0.000302677325           
       0.489336           -0.000321463676                         0           
       0.490015            0.000593862824            0.000374722884           
       0.490694             0.00017370228            0.000208266028           
       0.491374           -0.000321522216                         0           
       0.492053             0.00070664304             0.00042632679           
       0.492732           -7.04124685e-05                         0           
       0.493411           -6.98901049e-05                         0           
       0.494090           -0.000321600765                         0           
       0.494769           -0.000321620209                         0           
       0.495449            0.000211952778            0.000237095546           
       0.496128           -5.15935391e-05                         0           
       0.496807           -0.000321679264                         0           
       0.497486           -0.000321699005                         0           
       0.498165           -3.62954286e-05                         0           
       0.498844           -0.000321738753                         0           
       0.499524           -0.000321758569                         0           
       0.500203             -0.0003217787                         0           
       0.500882            -2.0116043e-05                         0           
       0.501561           -0.000321818231                         0           
       0.502240           -0.000321838292                         0           
       0.502919           -0.000321858263                         0           
       0.503599           -0.000321878315                         0           
       0.504278            -1.6416754e-09                         0           
       0.504957            0.000333769965            0.000328389402           
       0.505636           -0.000321938709                         0           
       0.506315            0.000668010735            0.000469669508           
       0.506994            1.50728563e-05            7.17415817e-05           
       0.507673            2.17044358e-05            8.70840538e-05           
       0.508353            0.000348861759            0.000341319196           
       0.509032            4.85673114e-05            0.000133405996           
       0.509711           -0.000322059593                         0           
       0.510390           -0.000322080143                         0           
       0.511069           -0.000322100625                         0           
       0.511748           -0.000322121025                         0           
       0.512428            -0.00032214157                         0           
       0.513107             0.00121389295            0.000681739926           
       0.513786            0.000873214364             0.00059449717           
       0.514465           -0.000322202729                         0           
       0.515144           -0.000322223353                         0           
       0.515823            0.000885743432            0.000596804943           
       0.516503           -0.000322264418                         0           
       0.517182           -0.000322285044                         0           
       0.517861            -0.00032230562                         0           
       0.518540            0.000129467063            0.000241890431           
       0.519219           -0.000322346884                         0           
       0.519898            0.000149502522            0.000264959945           
       0.520578            -0.00032238857                         0           
       0.521257           -0.000322409205                         0           
       0.521936           -0.000322429889                         0           
       0.522615           -0.000322450822                         0           
       0.523294           -0.000322471832                         0           
       0.523973           -0.000322492552                         0           
       0.524653           -0.000322513122                         0           
       0.525332            0.000630300824            0.000548464109           
       0.526011             0.00072927537            0.000616099164           
       0.526690           -0.000322576442                         0           
       0.527369           -0.000322597471                         0           
       0.528048           -0.000322618651                         0           
       0.528728           -0.000322639805                         0           
       0.529407           -0.000322660861                         0           
       0.530086            0.000208497346            0.000332366217           
       0.530765            0.000226433795            0.000361780894           
       0.531444           -0.000322723991                         0           
       0.532123            -0.00032274557                         0           
       0.532802           -0.000322766973                         0           
       0.533482             0.00084469756             0.00070391901           
       0.534161            0.000256716579             0.00038344739           
       0.534840           -0.000322830847                         0           
       0.535519            0.000264362918            0.000394795462           
       0.536198            0.000276175738            0.000405515927           
       0.536877             0.00162893044             0.00102614279           
       0.537557           -0.000322916244                         0           
       0.538236           -0.000322937855                         0           
       0.538915           -0.000322959458                         0           
       0.539594           -0.000322981032                         0           
       0.540273           -0.000323002943                         0           
       0.540952            -0.00032302461                         0           
       0.541632           -0.000323045881                         0           
       0.542311           -0.000323067348                         0           
       0.542990           -0.000323089054                         0           
       0.543669           -0.000323110942                         0           
       0.544348             0.00041440957              0.0005562816           
       0.545027            0.000346683436            0.000484051985           
       0.545707             -0.0003231765                         0           
       0.546386           -0.000323198442                         0           
       0.547065           -0.000323220121                         0           
       0.547744           -0.000323241898                         0           
       0.548423           -0.000323263915                         0           
       0.549102           -0.000323285955                         0           
       0.549782           -0.000323307884                         0           
       0.550461           -0.000323330073                         0           
       0.551140           -0.000323352395                         0           
       0.551819           -0.000323374454                         0           
       0.552498           -0.000323396701                         0           
       0.553177           -0.000323418567                         0           
       0.553856             0.00149484822             0.00116658591           
       0.554536            0.000495550841            0.000641101006           
       0.555215           -0.000323484878                         0           
       0.555894           -0.000323507177                         0           
       0.556573           -0.000323529609                         0           
       0.557252           -0.000323552022                         0           
       0.557931           -0.000323574333                         0           
       0.558611           -0.000323597166                         0           
       0.559290           -0.000323619418                         0           
       0.559969           -0.000323641123                         0           
       0.560648           -0.000323663404                         0           
       0.561327            -0.00032368618                         0           
       0.562006           -0.000323708852                         0           
       0.562686            0.000900929562             0.00105018815           
       0.563365            0.000694913015            0.000841291124           
       0.564044           -0.000323776956                         0           
       0.564723           -0.000323799558                         0           
       0.565402            -0.00032382174                         0           
       0.566081           -0.000323844069                         0           
       0.566761           -0.000323866638                         0           
       0.567440           -0.000323889666                         0           
       0.568119           -0.000323912512                         0           
       0.568798           -0.000323935679                         0           
       0.569477            0.000940074161             0.00108977553           
       0.570156           -0.000323981827                         0           
       0.570836            -0.00032400487                         0           
       0.571515           -0.000324027426                         0           
       0.572194           -0.000324050636                         0           
       0.572873             0.00275591139             0.00205725206           
       0.573552            -0.00032409586                         0           
       0.574231           -0.000324118863                         0           
       0.574911           -0.000324142445                         0           
       0.575590           -0.000324165573                         0           
       0.576269           -0.000324188631                         0           
       0.576948           -0.000324212132                         0           
       0.577627           -0.000324234916                         0           
       0.578306           -0.000324258021                         0           
       0.578985             0.00164049497             0.00180688409           
       0.579665           -0.000324304493                         0           
       0.580344           -0.000324328013                         0           
       0.581023           -0.000324351506                         0           
       0.581702           -0.000324374783                         0           
       0.582381           -0.000324397848                         0           
       0.583060           -0.000324421602                         0           
       0.583740           -0.000324444982                         0           
       0.584419           -0.000324468439                         0           
       0.585098           -0.000324491869                         0           
       0.585777           -0.000324515482                         0           
       0.586456           -0.000324539478                         0           
       0.587135           -0.000324562837                         0           
       0.587815           -0.000324585943                         0           
       0.588494           -0.000324609769                         0           
       0.589173           -0.000324634143                         0           
       0.589852           -0.000324657221                         0           
       0.590531            -0.00032468117                         0           
       0.591210           -0.000324704565                         0           
       0.591890           -0.000324728413                         0           
       0.592569           -0.000324751463                         0           
       0.593248           -0.000324776663                         0           
       0.593927           -0.000324800623                         0           
       0.594606           -0.000324825075                         0           
       0.595285           -0.000324848071                         0           
       0.595965           -0.000324869529                         0           
       0.596644           -0.000324891611                         0           
