################################################################################
# EDF_DataBlockID                     0.Image.Psd
# EDF_BinarySize                      2105344
# EDF_HeaderSize                      2560
# ByteOrder                           LowByteFirst
# DataType                            FloatValue
# Dim_1                               512
# Dim_2                               1028
# Image                               0
# HeaderID                            EH:000000:000000:000000
# Size                                2105344
# Center_1                            304.9000
# Center_2                            588.7000
# Comment                             Xenocs_Cell_Window - 20251028_20perc_iodine_1.23mg
# DDummy                              0.6
# Date                                2025-11-02T12:52:10
# Delta                               21.910000
# Dummy                               -1.5
# ExposureTime                        360
# Gamma                               15.360000
# Intensity1                          8.78757e-10
# PSize_1                             7.5e-05
# PSize_2                             7.5e-05
# Pressure                            0.0325155
# SampleDistance                      0.115750
# SampleEnvKind                       large
# SampleEnvPN                         ElectroChemical cell
# SampleEnvSN                         1141
# Thickness                           0
# Wavelength                          1.541891e-10
# Wavelength                          1.54189e-10
# aux                                 0
# aux_dial                            0.002375
# beamx                               588.434
# beamx_dial                          588.434
# beamz                               657.808
# beamz_dial                          657.808
# det0x                               0
# det0x_dial                          6.36945
# det0xvd                             0
# det0xvd_dial                        0
# det0y                               450.002
# det0y_dial                          481.635
# det0z                               0
# det0z_dial                          1.23302
# det0zvd                             0
# det0zvd_dial                        0
# mag                                 1.818
# mag_dial                            1.818
# om                                  0.2499
# om_dial                             -0.610199
# phi                                 -0.0120535
# phi_dial                            0
# ry                                  0.599993
# ry_dial                             0.599993
# s1bot                               0.8
# s1bot_dial                          -1.66094
# s1hl                                0.8
# s1hl_dial                           -0.608437
# s1hr                                0.8
# s1hr_dial                           0.970938
# s1top                               0.8
# s1top_dial                          -0.461562
# s2bot                               0.45
# s2bot_dial                          1.36109
# s2hl                                0.45
# s2hl_dial                           -0.83375
# s2hr                                0.45
# s2hr_dial                           -0.118594
# s2top                               0.45
# s2top_dial                          1.44734
# w2theta                             32
# w2theta_dial                        32
# waxsch                              19.2605
# waxsch_dial                         -32.7355
# waxsh                               137.085
# waxsh_dial                          -43.5338
# waxsth                              26.0607
# waxsth_dial                         -19.4086
# waxsz                               67.0407
# waxsz_dial                          -23.7954
# wind                                65.9854
# wind_dial                           66.0041
# wpsi                                124
# wpsi_dial                           124
# wstod                               115
# wstod_dial                          115
# x                                   0
# x_dial                              1.00969
# z                                   0
# z_dial                              13.3172
# CountCutoff                         6807993
# DetectorModel                       Dectris EIGER2 Si 500K, S/N E-01-0554
# ThresholdSetting                    4023.88989258
# Saturation                          0
# FlatField                           Corrected
# BackgroundReductionExtra            0.02
# BackgroundCorrectionConstant        0.0026712
# Detector                            0
# Monitor                             0
# Pil_Roi0                            0
# SumForIntensity1                    3.16353e+08
# TransmittedFlux                     878757
# det                                 0
# mon                                 0
# pilai0                              3.16353e+08
# pilai1                              795205
# pilct0                              5.46645e+08
# pilct1                              795205
# pilroi0                             0
# pilroi1                             0
# sec                                 1
# title                               20251028_20perc_iodine_1.23mg_1_01077.edf
# usaxs0                              0
# Operation                           Azimuthal average I(q)
# Error_model                         ErrorModel.poisson
# Geometrical_correction              True
# Transmission_correction             True
# Thickness_correction                False
# Binning mode                        Uniform
# Binning factor                      1.0
# Psi                                 0.0
# Omega                               0.2499
# MaskInvalidPixels                   True
# DetectorEdge                        3
# MaskFiles                           ['WAXS_corrected.edf']
################################################################################
    q(A⁻¹)                Intensity(a.u.)            Sigma_I(a.u.)            
       0.693100             0.00400772183             0.00416321131           
       0.695741             0.00540688812             0.00394603634           
       0.698381              0.0124175082             0.00732516605           
       0.701021           -2.30680711e-05                         0           
       0.703662              0.0192448342             0.00744130285           
       0.706302              0.0050506811             0.00295137247           
       0.708942              0.0111704507             0.00566507223           
       0.711583             0.00211604302             0.00213509962           
       0.714223             0.00284301214             0.00285722982           
       0.716864             0.00486949894             0.00244663249           
       0.719504             0.00428918256             0.00247788828           
       0.722144             0.00855351743             0.00324051209           
       0.724785             0.00388710985             0.00174255336           
       0.727425             0.00429116911             0.00247685475           
       0.730065             0.00710611419             0.00225460275           
       0.732706             0.00649088665              0.0018094838           
       0.735346             0.00599801152             0.00226741203           
       0.737987             0.00676073621             0.00170106482           
       0.740627              0.0075653556              0.0026848809           
       0.743267              0.0081194472             0.00186301239           
       0.745908              0.0111154594             0.00236496623           
       0.748548             0.00641287777             0.00165577816           
       0.751189              0.0093478329             0.00269369034           
       0.753829             0.00526642849             0.00185855492           
       0.756469             0.00546371666             0.00152649272           
       0.759110             0.00658471096              0.0017659953           
       0.761750             0.00741529923             0.00165709036           
       0.764390              0.0112894794             0.00214005174           
       0.767031             0.00576195479             0.00132394944           
       0.769671             0.00806680553             0.00195412306           
       0.772312             0.00656086784             0.00134163109           
       0.774952             0.00646968808               0.001799094           
       0.777592             0.00740827234             0.00140225773           
       0.780233             0.00647189119             0.00158127989           
       0.782873             0.00565187326             0.00141329227           
       0.785513             0.00685282938             0.00166369806           
       0.788154             0.00477796786              0.0011621041           
       0.790794             0.00807483681             0.00180613136           
       0.793435             0.00519222846             0.00130109669           
       0.796075              0.0081866155             0.00157380541           
       0.798715             0.00882732892             0.00193119548           
       0.801356             0.00994436771             0.00176415233           
       0.803996              0.0068260969             0.00149013782           
       0.806637             0.00637299752             0.00114584087           
       0.809277             0.00701072431             0.00130081403           
       0.811917             0.00631575936             0.00115420832           
       0.814558             0.00634333252              0.0012022091           
       0.817198              0.0092665068             0.00138046161           
       0.819838             0.00567428359             0.00109328664           
       0.822479             0.00786949977             0.00151189345           
       0.825119             0.00778935836             0.00128024234           
       0.827760             0.00777989634               0.001296048           
       0.830400             0.00685557007             0.00114506772           
       0.833040             0.00670701497             0.00118660913           
       0.835681             0.00673567983             0.00135185108           
       0.838321               0.008034254             0.00123920921           
       0.840961             0.00634624268             0.00119998601           
       0.843602             0.00971383425             0.00136145054           
       0.846242             0.00818888769             0.00124983937           
       0.848883               0.008582568              0.0013094145           
       0.851523             0.00797854645              0.0012468146           
       0.854163             0.00639495216             0.00118707405           
       0.856804             0.00873375433             0.00124734211           
       0.859444             0.00632841773             0.00104033476           
       0.862085              0.0074442517             0.00117600211           
       0.864725             0.00797982628             0.00124605825           
       0.867365             0.00836482487             0.00118300329           
       0.870006             0.00879339698             0.00115582943           
       0.872646             0.00534740635            0.000945176151           
       0.875286             0.00617499777            0.000977153004           
       0.877927              0.0086150524             0.00111372883           
       0.880567             0.00916968473             0.00119040837           
       0.883208             0.00697111285             0.00102815594           
       0.885848             0.00651808117             0.00103226464           
       0.888488             0.00701533068             0.00100445273           
       0.891129             0.00757424029             0.00107166032           
       0.893769             0.00776701529             0.00103857636           
       0.896410             0.00817249684            0.000993271326           
       0.899050             0.00948922363             0.00117703992           
       0.901690             0.00587219498             0.00100860201           
       0.904331             0.00653326535            0.000943171038           
       0.906971             0.00755749012             0.00107916659           
       0.909611             0.00817494348             0.00102173011           
       0.912252             0.00842104188             0.00107110708           
       0.914892             0.00715143991             0.00107865405           
       0.917533             0.00581321406            0.000919989872           
       0.920173             0.00625823785            0.000885639299           
       0.922813             0.00893203384             0.00111030386           
       0.925454             0.00783962675            0.000936666078           
       0.928094             0.00802982504             0.00101202753           
       0.930734             0.00764206791             0.00106292685           
       0.933375             0.00577838114            0.000915188413           
       0.936015             0.00547915366            0.000809379672           
       0.938656             0.00868429455             0.00109311763           
       0.941296             0.00882541859            0.000998682538           
       0.943936              0.0067234844            0.000854817194           
       0.946577             0.00879513773            0.000971217828           
       0.949217             0.00705743823            0.000800043193           
       0.951858              0.0086253731            0.000925854466           
       0.954498             0.00784988901             0.00102235073           
       0.957138             0.00811739929            0.000984902158           
       0.959779             0.00835752164            0.000985166795           
       0.962419             0.00744306809            0.000923524822           
       0.965059             0.00913339748             0.00107596084           
       0.967700             0.00821220243              0.0010449469           
       0.970340             0.00706408183            0.000857604319           
       0.972981             0.00940732127            0.000901687819           
       0.975621             0.00724582152            0.000841856986           
       0.978261             0.00660241909            0.000763572076           
       0.980902             0.00616897045            0.000883078753           
       0.983542             0.00703086986            0.000834868639           
       0.986182             0.00833116341            0.000892250408           
       0.988823             0.00657670865            0.000769765132           
       0.991463             0.00799713566            0.000905613975           
       0.994104             0.00788838801            0.000877413163           
       0.996744             0.00731906151            0.000862054015           
       0.999384             0.00648950109            0.000725959561           
       1.002025              0.0060780902            0.000784162281           
       1.004665             0.00736092213            0.000788634717           
       1.007306             0.00893670376            0.000864509545           
       1.009946             0.00765625511             0.00081607469           
       1.012586             0.00634862019            0.000723759172           
       1.015227             0.00788535475            0.000866554504           
       1.017867             0.00890728561            0.000885141277           
       1.020507             0.00776659841             0.00080060056           
       1.023148             0.00845924447            0.000901568443           
       1.025788             0.00904580321            0.000854847154           
       1.028429             0.00869569318            0.000878090379           
       1.031069             0.00926133336            0.000852768672           
       1.033709             0.00788722473            0.000836547985           
       1.036350             0.00901491015            0.000803252154           
       1.038990             0.00875478997            0.000806124986           
       1.041630             0.00590209294            0.000690352744           
       1.044271             0.00848724558            0.000778562433           
       1.046911             0.00871254631            0.000829744712           
       1.049552             0.00907920567            0.000889906498           
       1.052192             0.00865037458             0.00079317493           
       1.054832             0.00836661064            0.000787152996           
       1.057473              0.0070580577            0.000712706776           
       1.060113             0.00670619209            0.000677535416           
       1.062754             0.00905751659            0.000803927377           
       1.065394             0.00957776797            0.000874028493           
       1.068034             0.00792829815            0.000723534707           
       1.070675             0.00770401173            0.000743983514           
       1.073315             0.00859587724            0.000797133009           
       1.075955             0.00696392709            0.000677346816           
       1.078596             0.00916756717            0.000825968034           
       1.081236             0.00886634131            0.000777815861           
       1.083877             0.00805764829            0.000734844166           
       1.086517             0.00768630602            0.000769596813           
       1.089157             0.00954230226            0.000889745927           
       1.091798             0.00935150012            0.000772216784           
       1.094438             0.00842060672            0.000730409322           
       1.097078             0.00826377614            0.000693984883           
       1.099719              0.0094050934            0.000800811333           
       1.102359             0.00885773656            0.000727818956           
       1.105000             0.00762769641            0.000755224694           
       1.107640             0.00969656617             0.00081417961           
       1.110280             0.00834958521            0.000689350765           
       1.112921             0.00867376658            0.000754750457           
       1.115561             0.00711774834            0.000649807467           
       1.118202             0.00814454423            0.000695754151           
       1.120842             0.00860475116            0.000751617637           
       1.123482             0.00831750922            0.000735738464           
       1.126123             0.00950691442            0.000754468453           
       1.128763              0.0092943517            0.000751101005           
       1.131403             0.00866980244            0.000699010526           
       1.134044              0.0088325827            0.000726004603           
       1.136684             0.00978412116            0.000814674776           
       1.139325             0.00909246091            0.000723464923           
       1.141965             0.00908190116            0.000727824658           
       1.144605              0.0081522454            0.000657504979           
       1.147246             0.00826229309            0.000677426004           
       1.149886             0.00838998049            0.000680217148           
       1.152527             0.00788022202            0.000668815545           
       1.155167             0.00831624332            0.000653507826           
       1.157807             0.00903800056            0.000730449741           
       1.160448              0.0100883525            0.000753612191           
       1.163088             0.00880425653            0.000671530148           
       1.165728             0.00890559739            0.000693429411           
       1.168369             0.00746392568            0.000640690418           
       1.171009             0.00790283853            0.000639793069           
       1.173650              0.0092605625            0.000710746836           
       1.176290             0.00916285703            0.000690885338           
       1.178930             0.00981064059            0.000700657258           
       1.181571             0.00785535842            0.000639393006           
       1.184211             0.00968174766            0.000712358908           
       1.186851              0.0104196455            0.000722516328           
       1.189492              0.0106968021            0.000727137557           
       1.192132              0.0106724392            0.000718159826           
       1.194773             0.00897490671             0.00066145095           
       1.197413             0.00976018215            0.000660908476           
       1.200053             0.00855953224            0.000634649991           
       1.202694             0.00880260516            0.000612025134           
       1.205334             0.00924443678            0.000675921909           
       1.207975              0.0107040025            0.000694253633           
       1.210615              0.0105120421            0.000758981192           
       1.213255              0.0108822284            0.000691513737           
       1.215896              0.0101394778             0.00067959195           
       1.218536             0.00999675707            0.000648841501           
       1.221176             0.00961448474            0.000691804794           
       1.223817             0.00981839264            0.000656259232           
       1.226457              0.0091916523            0.000647760517           
       1.229098              0.0106065755            0.000695799504           
       1.231738              0.0105929375              0.0006987743           
       1.234378             0.00995029267            0.000636374693           
       1.237019             0.00884767926             0.00061837748           
       1.239659              0.0106513869            0.000672577512           
       1.242299             0.00953895394            0.000628400494           
       1.244940             0.00985806459            0.000621297461           
       1.247580             0.00963501907            0.000633012804           
       1.250221             0.00895165115             0.00060638678           
       1.252861             0.00977682541            0.000603304022           
       1.255501               0.010182162            0.000668514257           
       1.258142              0.0108764427            0.000649252791           
       1.260782              0.0105212027            0.000652378743           
       1.263423             0.00959598152            0.000598665291           
       1.266063              0.0102348653             0.00063371234           
       1.268703              0.0108246083            0.000646306254           
       1.271344              0.0114251742            0.000686496487           
       1.273984              0.0108033228            0.000644724253           
       1.276624              0.0097555565            0.000601152774           
       1.279265             0.00963829983            0.000607451988           
       1.281905              0.0101061291            0.000624780351           
       1.284546             0.00985064445             0.00059622457           
       1.287186             0.00902585754            0.000559935194           
       1.289826              0.0103808282            0.000632872757           
       1.292467              0.0105610747            0.000624283484           
       1.295107              0.0109815602            0.000630266368           
       1.297747              0.0105027399             0.00058981751           
       1.300388               0.010211762            0.000634006182           
       1.303028              0.0107987918            0.000622414165           
       1.305669              0.0101087627            0.000616539124           
       1.308309              0.0106815693            0.000627525234           
       1.310949               0.010254092            0.000614222322           
       1.313590              0.0125248164            0.000657613034           
       1.316230              0.0105334505            0.000643562889           
       1.318871              0.0114046126            0.000655837021           
       1.321511               0.010758427            0.000625179519           
       1.324151              0.0108892021            0.000610321178           
       1.326792              0.0113273752            0.000626327918           
       1.329432              0.0105876125            0.000601257561           
       1.332072               0.010989399            0.000603430799           
       1.334713              0.0111601579            0.000627620515           
       1.337353              0.0106903866            0.000589096314           
       1.339994              0.0108897026            0.000623934251           
       1.342634              0.0110305957            0.000602171875           
       1.345274              0.0106867773            0.000613402127           
       1.347915               0.010774382            0.000598902863           
       1.350555              0.0114758566            0.000628916643           
       1.353195              0.0119866563            0.000645917978           
       1.355836              0.0109928518            0.000608917104           
       1.358476              0.0117655442              0.0006117812           
       1.361117             0.00997247648            0.000564010695           
       1.363757              0.0109871491             0.00061008577           
       1.366397              0.0112054444             0.00059747219           
       1.369038              0.0112711113            0.000605186879           
       1.371678              0.0107197999            0.000584997124           
       1.374319              0.0112584518            0.000594352219           
       1.376959              0.0113781549            0.000591494708           
       1.379599              0.0106181722            0.000612367186           
       1.382240              0.0114172592            0.000596796752           
       1.384880              0.0107022889            0.000612030393           
       1.387520              0.0108214514            0.000584491176           
       1.390161              0.0108659207            0.000556265647           
       1.392801              0.0106834553             0.00057468804           
       1.395442               0.010196341            0.000569101582           
       1.398082              0.0114731997            0.000565324059           
       1.400722              0.0118520527            0.000601861402           
       1.403363              0.0102039507            0.000587835916           
       1.406003              0.0100167396            0.000545065452           
       1.408644              0.0118827658            0.000621906679           
       1.411284               0.010797641            0.000561358346           
       1.413924              0.0117216691            0.000582716661           
       1.416565               0.011065035            0.000563935953           
       1.419205              0.0113478987            0.000595746994           
       1.421845              0.0119849748            0.000611881908           
       1.424486              0.0111594573            0.000567541786           
       1.427126              0.0118580653            0.000607740151           
       1.429767              0.0113118315            0.000558484331           
       1.432407              0.0114441508            0.000587875338           
       1.435047              0.0105994854            0.000531346957           
       1.437688              0.0113442474              0.0005579163           
       1.440328              0.0117922286            0.000580550397           
       1.442968              0.0115598445            0.000587680369           
       1.445609              0.0106841857            0.000547060881           
       1.448249              0.0118924951            0.000591780405           
       1.450890              0.0108401582            0.000561303806           
       1.453530              0.0107432819            0.000584606781           
       1.456170              0.0116695345            0.000591327619           
       1.458811             0.00970660661            0.000515695701           
       1.461451              0.0109607527            0.000549436816           
       1.464092              0.0106191147            0.000544341968           
       1.466732              0.0106747701            0.000541076659           
       1.469372              0.0109998989            0.000536400578           
       1.472013              0.0117318124            0.000597455606           
       1.474653              0.0100008586             0.00054311272           
       1.477293              0.0105130231            0.000568582502           
       1.479934              0.0111216752            0.000558030903           
       1.482574              0.0103990581             0.00052197654           
       1.485215              0.0121142437            0.000573874018           
       1.487855              0.0103415153            0.000537219913           
       1.490495              0.0117270361             0.00056996964           
       1.493136              0.0102579934            0.000525768789           
       1.495776              0.0122546857            0.000572048274           
       1.498416              0.0104172715            0.000544678178           
       1.501057              0.0107734603            0.000541704374           
       1.503697              0.0104690753            0.000522067338           
       1.506338              0.0113290208            0.000553010009           
       1.508978               0.010173496            0.000518895365           
       1.511618              0.0118247757            0.000595783893           
       1.514259              0.0112887912            0.000562014122           
       1.516899             0.00988130876            0.000511966879           
       1.519540              0.0107024032            0.000541405597           
       1.522180              0.0111357587            0.000557109274           
       1.524820              0.0105889324            0.000540210614           
       1.527461              0.0102651344            0.000534517502           
       1.530101              0.0110271608            0.000548461552           
       1.532741               0.010682187            0.000536681603           
       1.535382             0.00990097837            0.000525002779           
       1.538022              0.0102556259            0.000503360277           
       1.540663              0.0101040484            0.000537379277           
       1.543303             0.00988135504            0.000493436187           
       1.545943              0.0111349988            0.000554406609           
       1.548584              0.0104689496            0.000547219515           
       1.551224             0.00973621328            0.000487928706           
       1.553864              0.0103668413            0.000532023556           
       1.556505              0.0100643371            0.000506394513           
       1.559145              0.0104959622            0.000523474193           
       1.561786              0.0101099334            0.000514153314           
       1.564426                0.01111843            0.000522417037           
       1.567066             0.00980869991             0.00051414194           
       1.569707              0.0113474371            0.000543067717           
       1.572347              0.0107051983            0.000544935128           
       1.574988              0.0100190385            0.000501788752           
       1.577628             0.00975356001            0.000516263127           
       1.580268             0.00978460799            0.000500999491           
       1.582909              0.0111299843            0.000566372836           
       1.585549             0.00913013532            0.000498079517           
       1.588189             0.00969279508            0.000501996837           
       1.590830             0.00984212946            0.000505214228           
       1.593470              0.0105098053            0.000542741367           
       1.596111             0.00929050109            0.000498199384           
       1.598751              0.0100370738            0.000501759878           
       1.601391             0.00903665264             0.00048660182           
       1.604032              0.0100703428            0.000524417846           
       1.606672             0.00907486915            0.000483682934           
       1.609312             0.00953588213            0.000517574487           
       1.611953              0.0100347194            0.000519557402           
       1.614593             0.00906462663             0.00048438404           
       1.617234             0.00956220784            0.000515598459           
       1.619874               0.010571817            0.000539993297           
       1.622514             0.00997340155             0.00051733279           
       1.625155             0.00952584961            0.000508578807           
       1.627795             0.00943769547            0.000493816791           
       1.630436             0.00932676805            0.000488342788           
       1.633076             0.00933356429            0.000494927823           
       1.635716             0.00941496828            0.000489347265           
       1.638357             0.00930650356             0.00048780274           
       1.640997             0.00975033268            0.000514423759           
       1.643637              0.0100649878            0.000508605526           
       1.646278             0.00939756792            0.000506894728           
       1.648918             0.00959592897            0.000513613778           
       1.651559              0.0102165846            0.000534076876           
       1.654199             0.00918074424            0.000492400728           
       1.656839             0.00856064422            0.000475646753           
       1.659480             0.00976861376             0.00052717839           
       1.662120             0.00976987404            0.000496547225           
       1.664761             0.00896415821            0.000494058615           
       1.667401             0.00820460173            0.000451765523           
       1.670041             0.00835970707            0.000462968981           
       1.672682             0.00884541221            0.000474271142           
       1.675322             0.00926388743             0.00048223925           
       1.677962              0.0093990726            0.000480386702           
       1.680603             0.00904633231            0.000472736487           
       1.683243             0.00879122956             0.00048620844           
       1.685884             0.00796636698            0.000466254635           
       1.688524             0.00860839389            0.000475309946           
       1.691164             0.00787168638            0.000454619742           
       1.693805             0.00856842097            0.000479523261           
       1.696445             0.00903533503            0.000495271517           
       1.699085             0.00855769854            0.000465851958           
       1.701726             0.00906093447            0.000461773445           
       1.704366             0.00831480679             0.00046600629           
       1.707007              0.0081306463            0.000450544622           
       1.709647              0.0087577234             0.00047287671           
       1.712287             0.00914767762            0.000487496595           
       1.714928             0.00885073562            0.000483385195           
       1.717568             0.00798952409            0.000432630216           
       1.720209             0.00912243461             0.00048421367           
       1.722849             0.00934142238            0.000487471983           
       1.725489             0.00892924584             0.00047699636           
       1.728130             0.00923393076            0.000515489404           
       1.730770             0.00862922057            0.000473274328           
       1.733410             0.00822094472            0.000454681322           
       1.736051             0.00840842562            0.000463037335           
       1.738691             0.00795348159            0.000441207756           
       1.741332             0.00917990916            0.000487866079           
       1.743972             0.00904109175            0.000499980831           
       1.746612             0.00789476205            0.000448641026           
       1.749253             0.00766047955            0.000450661511           
       1.751893             0.00852020593            0.000471789183           
       1.754533              0.0083351482            0.000466201672           
       1.757174             0.00784364162             0.00044801229           
       1.759814             0.00900304664            0.000472707335           
       1.762455             0.00816276051            0.000458372287           
       1.765095              0.0086358119            0.000451015623           
       1.767735             0.00866803502            0.000465796044           
       1.770376             0.00852138956            0.000463056612           
       1.773016             0.00867129425            0.000463982963           
       1.775657              0.0083941321            0.000449939037           
       1.778297             0.00845324467            0.000447632538           
       1.780937             0.00752375616            0.000445743862           
       1.783578             0.00932562377            0.000483848823           
       1.786218              0.0081778779            0.000472856148           
       1.788858             0.00940232496            0.000481548065           
       1.791499             0.00830420932            0.000447472172           
       1.794139             0.00798196427            0.000435144897           
       1.796780               0.009510067            0.000472685236           
       1.799420             0.00847166192            0.000443662638           
       1.802060             0.00879763791            0.000455769675           
       1.804701             0.00845557289            0.000428790087           
       1.807341             0.00877940469            0.000459111931           
       1.809981             0.00872434683            0.000459195955           
       1.812622             0.00879141446            0.000452658858           
       1.815262             0.00844972814            0.000453201993           
       1.817903             0.00831682033            0.000442961588           
       1.820543             0.00891848351            0.000465852058           
       1.823183             0.00901873379            0.000468205463           
       1.825824             0.00885596615            0.000443249741           
       1.828464             0.00857714468            0.000454774346           
       1.831105             0.00824055187            0.000433437329           
       1.833745             0.00875259724            0.000456240875           
       1.836385              0.0083844351            0.000459285941           
       1.839026             0.00722082664            0.000424879135           
       1.841666             0.00850276248            0.000459419319           
       1.844306             0.00817394098            0.000438157625           
       1.846947              0.0078565771            0.000433332872           
       1.849587              0.0089769327            0.000511485537           
       1.852228             0.00819893496            0.000442013527           
       1.854868              0.0088050858            0.000483874056           
       1.857508             0.00826115066             0.00046409327           
       1.860149              0.0080576849            0.000466669939           
       1.862789              0.0079773626            0.000448193685           
       1.865429             0.00715174065            0.000442974567           
       1.868070             0.00819702487            0.000467922293           
       1.870710             0.00794718669            0.000450114099           
       1.873351             0.00766678433            0.000447567444           
       1.875991             0.00806289616            0.000466474556           
       1.878631             0.00824039796            0.000462549417           
       1.881272             0.00849192241            0.000466409477           
       1.883912             0.00895729731            0.000498519584           
       1.886553             0.00824928036            0.000473063017           
       1.889193             0.00716328796            0.000440072745           
       1.891833             0.00847059917            0.000496990562           
       1.894474             0.00822200425             0.00048537912           
       1.897114             0.00838890338            0.000474434444           
       1.899754             0.00910084899            0.000496224156           
       1.902395             0.00754116962            0.000442875058           
       1.905035             0.00865902367            0.000502644598           
       1.907676             0.00784494023            0.000450924769           
       1.910316             0.00783278967            0.000462538975           
       1.912956              0.0079871275            0.000456798018           
       1.915597             0.00830712792            0.000468462472           
       1.918237             0.00780698162            0.000469017393           
       1.920878             0.00711848808            0.000446025567           
       1.923518             0.00758341086            0.000460555949           
       1.926158             0.00784558054            0.000462370531           
       1.928799             0.00715524965            0.000436449097           
       1.931439             0.00775839033            0.000466392213           
       1.934079             0.00836550012            0.000504867305           
       1.936720              0.0089714113            0.000484418495           
       1.939360             0.00752917466            0.000473447335           
       1.942001             0.00850391229            0.000461173266           
       1.944641             0.00852711343            0.000470898407           
       1.947281             0.00776259776            0.000445151735           
       1.949922             0.00804385175            0.000468058018           
       1.952562             0.00796306334            0.000480299324           
       1.955202             0.00744688758            0.000463905559           
       1.957843             0.00728663937            0.000446986801           
       1.960483             0.00750913785            0.000474405352           
       1.963124             0.00770666045            0.000470744501           
       1.965764             0.00779928847              0.0004465851           
       1.968404             0.00776646335             0.00044143371           
       1.971045             0.00710747361            0.000430547531           
       1.973685             0.00819382168            0.000484899024           
       1.976326             0.00750151067            0.000457585443           
       1.978966             0.00701434331            0.000446360771           
       1.981606              0.0079888751            0.000486294838           
       1.984247             0.00733042425            0.000462760942           
       1.986887             0.00818692491            0.000483190952           
       1.989527             0.00696457852            0.000440862702           
       1.992168             0.00723373854             0.00046618782           
       1.994808             0.00780326932            0.000482116703           
       1.997449             0.00759035823            0.000465728977           
       2.000089             0.00726440313            0.000453812898           
       2.002729             0.00746854766            0.000460421122           
       2.005370             0.00726988557             0.00044936863           
       2.008010             0.00771046203            0.000482982364           
       2.010650             0.00757578883            0.000482318149           
       2.013291             0.00751500151             0.00046089727           
       2.015931             0.00751349478            0.000457593356           
       2.018572             0.00742755917            0.000486632336           
       2.021212             0.00752658628            0.000481064301           
       2.023852             0.00764867687            0.000458982649           
       2.026493             0.00813998072            0.000494649088           
       2.029133             0.00859394286            0.000498026968           
       2.031774             0.00858884148            0.000522513084           
       2.034414             0.00703556221             0.00043514368           
       2.037054             0.00769802663            0.000466706366           
       2.039695             0.00641040168             0.00042267266           
       2.042335             0.00661465782            0.000446192769           
       2.044975             0.00761671353            0.000472991839           
       2.047616             0.00748536483            0.000467731011           
       2.050256              0.0074995419            0.000472604328           
       2.052897             0.00845791264            0.000511146613           
       2.055537             0.00781415643            0.000474831711           
       2.058177             0.00680162251            0.000433817655           
       2.060818             0.00783103636            0.000487637081           
       2.063458             0.00744605032            0.000495517737           
       2.066098             0.00832763821            0.000494336965           
       2.068739             0.00774321437            0.000484084907           
       2.071379             0.00898978926            0.000535201122           
       2.074020              0.0077667926            0.000486654355           
       2.076660             0.00821181886            0.000504447695           
       2.079300             0.00708361882             0.00047999517           
       2.081941              0.0081272451            0.000470753264           
       2.084581             0.00729290113            0.000470689032           
       2.087222             0.00751502996            0.000460795753           
       2.089862              0.0071978435            0.000491171361           
       2.092502             0.00765803102            0.000491104888           
       2.095143             0.00650980941            0.000467576632           
       2.097783             0.00802049785            0.000502481633           
       2.100423              0.0074267226            0.000465919982           
       2.103064             0.00780365534            0.000495571281           
       2.105704             0.00759829308            0.000486584861           
       2.108345             0.00716329441            0.000453899288           
       2.110985             0.00837451518            0.000524183825           
       2.113625             0.00725291008            0.000492077304           
       2.116266             0.00738959726            0.000503739361           
       2.118906             0.00764455498            0.000477486845           
       2.121546              0.0072513372            0.000456165206           
       2.124187             0.00828089533            0.000511697496           
       2.126827             0.00744011942            0.000490438774           
       2.129468             0.00764410083            0.000498386154           
       2.132108             0.00797220114             0.00049518874           
       2.134748             0.00762010799            0.000482251908           
       2.137389             0.00746921931              0.0004981025           
       2.140029             0.00741618944            0.000444345928           
       2.142670             0.00772984801             0.00048482035           
       2.145310             0.00688466471            0.000445339767           
       2.147950             0.00704766616            0.000463770496           
       2.150591             0.00694926115            0.000455867294           
       2.153231             0.00757903309            0.000490045923           
       2.155871             0.00753388149            0.000472004669           
       2.158512             0.00669094545            0.000464134218           
       2.161152             0.00707893742            0.000462440985           
       2.163793             0.00754921006            0.000475404702           
       2.166433              0.0080782023            0.000505005342           
       2.169073             0.00683186855            0.000454077763           
       2.171714              0.0060657296            0.000424661855           
       2.174354             0.00711262412             0.00048050129           
       2.176995             0.00742847521            0.000488988006           
       2.179635             0.00709425623            0.000504963223           
       2.182275             0.00699744888            0.000473501294           
       2.184916             0.00760122648            0.000476663469           
       2.187556             0.00730038527            0.000462453525           
       2.190196             0.00723119699            0.000480962251           
       2.192837             0.00719536815            0.000477158908           
       2.195477             0.00742136191            0.000462003141           
       2.198118             0.00692529504            0.000457730912           
       2.200758             0.00815857319            0.000509706153           
       2.203398             0.00700846154            0.000475437684           
       2.206039             0.00730854087            0.000459493493           
       2.208679              0.0078133292            0.000486153604           
       2.211319              0.0069126596            0.000459912253           
       2.213960             0.00770778146            0.000492149757           
       2.216600             0.00631986863             0.00046100723           
       2.219241             0.00713195861            0.000468051067           
       2.221881             0.00740246439            0.000477825161           
       2.224521             0.00656639766             0.00045554772           
       2.227162             0.00746722221            0.000476064725           
       2.229802             0.00662053831            0.000462295651           
       2.232443             0.00678445475            0.000460602136           
       2.235083             0.00799252228            0.000514677993           
       2.237723             0.00684222809             0.00045698625           
       2.240364             0.00682869431            0.000467781129           
       2.243004             0.00738449693            0.000482562588           
       2.245644              0.0076641128            0.000496534655           
       2.248285             0.00633320273            0.000442325305           
       2.250925             0.00773739507            0.000491878297           
       2.253566              0.0072929511            0.000510529368           
       2.256206             0.00728299394            0.000499979634           
       2.258846             0.00700036772            0.000466299111           
       2.261487             0.00675793102            0.000480874631           
       2.264127             0.00708152659            0.000475410225           
       2.266767             0.00635773597            0.000462461578           
       2.269408             0.00710260532            0.000490803972           
       2.272048             0.00710906572            0.000488096132           
       2.274689              0.0066593942            0.000478631743           
       2.277329              0.0081706531            0.000499186202           
       2.279969             0.00723074511            0.000499859573           
       2.282610             0.00719241451             0.00048466736           
       2.285250              0.0078144659            0.000483536954           
       2.287891             0.00781781822            0.000518535811           
       2.290531             0.00778194045            0.000524299104           
       2.293171             0.00630491046            0.000459699361           
       2.295812             0.00782328976            0.000510011434           
       2.298452              0.0067569106            0.000495656293           
       2.301092             0.00709690785            0.000471969868           
       2.303733             0.00775265487            0.000513196999           
       2.306373             0.00684578268            0.000489842687           
       2.309014             0.00690802257            0.000482465337           
       2.311654             0.00693681383            0.000504523578           
       2.314294             0.00760772156            0.000486778695           
       2.316935             0.00688513562            0.000464997979           
       2.319575             0.00701202053            0.000491679117           
       2.322215             0.00722845382            0.000520260618           
       2.324856             0.00729018771            0.000480363887           
       2.327496             0.00657843876            0.000485203529           
       2.330137             0.00730372157            0.000489229487           
       2.332777             0.00747566613            0.000510351084           
       2.335417              0.0069897417            0.000478755007           
       2.338058             0.00754943061            0.000512416605           
       2.340698             0.00728480172            0.000499400093           
       2.343339             0.00650388275            0.000482258088           
       2.345979               0.006886325            0.000469477276           
       2.348619             0.00703077324             0.00049171575           
       2.351260             0.00805758831            0.000523332138           
       2.353900             0.00689674281            0.000482635147           
       2.356540              0.0069369623            0.000483353278           
       2.359181             0.00664229985            0.000466345259           
       2.361821             0.00720929163            0.000469309958           
       2.364462             0.00715998536            0.000489158124           
       2.367102             0.00786822136            0.000526963973           
       2.369742             0.00680986956            0.000516015372           
       2.372383             0.00705245698            0.000475500238           
       2.375023             0.00759144802             0.00051860306           
       2.377663             0.00761625625             0.00049667023           
       2.380304             0.00744065313            0.000499096491           
       2.382944             0.00704665282             0.00046261635           
       2.385585             0.00773360774            0.000516878524           
       2.388225             0.00726141316            0.000498496888           
       2.390865             0.00768209974            0.000507466764           
       2.393506               0.007487803            0.000491556098           
       2.396146             0.00762084519            0.000536193585           
       2.398787             0.00762659471            0.000494330367           
       2.401427              0.0076728753            0.000478588305           
       2.404067             0.00762740284            0.000487811565           
       2.406708             0.00691814231            0.000459006801           
       2.409348             0.00791719144            0.000520835676           
       2.411988              0.0077272654            0.000504145734           
       2.414629              0.0064037405            0.000473237658           
       2.417269             0.00784429606            0.000529883696           
       2.419910             0.00629394803            0.000475742267           
       2.422550             0.00767254024            0.000502542652           
       2.425190              0.0077335868            0.000531835666           
       2.427831             0.00744965914            0.000519047339           
       2.430471             0.00713621998            0.000483978346           
       2.433112             0.00660380639            0.000453358374           
       2.435752             0.00675898863            0.000485399293           
       2.438392              0.0072645684            0.000485716055           
       2.441033             0.00656531864            0.000489360554           
       2.443673             0.00686320454            0.000500723845           
       2.446313             0.00745628161            0.000522370568           
       2.448954             0.00689324139            0.000478222499           
       2.451594             0.00739919084            0.000532737456           
       2.454235             0.00661593641            0.000472647988           
       2.456875             0.00749001535            0.000526215914           
       2.459515             0.00723542592             0.00053058424           
       2.462156             0.00770647376            0.000516994841           
       2.464796             0.00815473158            0.000524956863           
       2.467436             0.00732875136            0.000514640123           
       2.470077             0.00768755684            0.000499583397           
       2.472717             0.00751864684            0.000496204706           
       2.475358             0.00747698012            0.000499987468           
       2.477998             0.00769621562            0.000498712916           
       2.480638              0.0072844799            0.000493810735           
       2.483279             0.00679907731            0.000498618948           
       2.485919             0.00786974745            0.000516986199           
       2.488560             0.00733320387            0.000497657149           
       2.491200             0.00662287839            0.000487004009           
       2.493840             0.00706143849            0.000532102324           
       2.496481             0.00748113526            0.000538727896           
       2.499121             0.00837013868            0.000554259267           
       2.501761             0.00821278013            0.000556298813           
       2.504402             0.00778588961            0.000533734569           
       2.507042              0.0075027419            0.000520058283           
       2.509683             0.00780129369             0.00052219961           
       2.512323             0.00709233667            0.000522925649           
       2.514963             0.00706129451            0.000515333694           
       2.517604             0.00729406221            0.000543480022           
       2.520244             0.00726335169            0.000508439769           
       2.522884             0.00776279743            0.000533146955           
       2.525525             0.00997022153            0.000611071141           
       2.528165             0.00918389688            0.000577337682           
       2.530806              0.0083800265            0.000561104487           
       2.533446             0.00696706206            0.000500697935           
       2.536086             0.00731786528            0.000508555745           
       2.538727             0.00735392603            0.000489082543           
       2.541367             0.00791959035            0.000512543778           
       2.544008             0.00721896872            0.000505376297           
       2.546648             0.00758250505            0.000526829147           
       2.549288             0.00662761629            0.000502576622           
       2.551929             0.00682671206             0.00050193896           
       2.554569              0.0068823809            0.000485543849           
       2.557209             0.00711871896             0.00049834521           
       2.559850             0.00676237786            0.000487272002           
       2.562490             0.00639921197             0.00048991195           
       2.565131             0.00701832559            0.000531967855           
       2.567771             0.00670633434            0.000501367184           
       2.570411             0.00668090464            0.000495001284           
       2.573052             0.00740047854            0.000527538029           
       2.575692             0.00705632777            0.000512006388           
       2.578332             0.00715236321            0.000517610411           
       2.580973             0.00703219721            0.000508360491           
       2.583613             0.00742853258            0.000510048791           
       2.586254              0.0075155784            0.000512315418           
       2.588894             0.00749100281            0.000531144563           
       2.591534             0.00751949814            0.000550879067           
       2.594175              0.0062461674            0.000492600632           
       2.596815             0.00648064826            0.000504720062           
       2.599456             0.00739880337            0.000511405871           
       2.602096             0.00778675507            0.000528634899           
       2.604736              0.0073233072            0.000524818425           
       2.607377             0.00705414727            0.000501509448           
       2.610017             0.00729045565            0.000500918316           
       2.612657             0.00650051268            0.000503109417           
       2.615298             0.00656893816            0.000493771486           
       2.617938             0.00602004605            0.000505659726           
       2.620579             0.00656756377            0.000507022532           
       2.623219             0.00573142794            0.000472973721           
       2.625859             0.00726752048            0.000517833685           
       2.628500              0.0068421709            0.000499158103           
       2.631140             0.00757286967             0.00053322698           
       2.633780             0.00636993365            0.000488620432           
       2.636421             0.00787546533            0.000556664088           
       2.639061             0.00707067469             0.00049653838           
       2.641702             0.00762462141            0.000527559086           
       2.644342             0.00655150642            0.000491110405           
       2.646982             0.00620752287            0.000470897182           
       2.649623             0.00689901702            0.000520241722           
       2.652263             0.00811329894            0.000558508988           
       2.654904             0.00689755831            0.000515484739           
       2.657544             0.00639002211            0.000467328623           
       2.660184             0.00696690436            0.000516411982           
       2.662825             0.00704636601            0.000531397428           
       2.665465             0.00732014739            0.000523838245           
       2.668105             0.00762363084            0.000563474966           
       2.670746              0.0063952939            0.000476755463           
       2.673386             0.00723969801            0.000522766117           
       2.676027             0.00802077073            0.000541412903           
       2.678667              0.0103962154            0.000601446151           
       2.681307              0.0101121235            0.000582824765           
       2.683948              0.0150842855            0.000731377214           
       2.686588              0.0106738813            0.000605031083           
       2.689229              0.0101078469            0.000575321906           
       2.691869              0.0100890252            0.000607491653           
       2.694509             0.00850368513            0.000558030416           
       2.697150             0.00843801244            0.000546852987           
       2.699790             0.00707783197            0.000525060755           
       2.702430             0.00804946961             0.00053523727           
       2.705071             0.00719804205            0.000522999257           
       2.707711             0.00702173392            0.000501354757           
       2.710352             0.00687314958            0.000524109222           
       2.712992             0.00691976689            0.000535607211           
       2.715632             0.00807722003            0.000536891785           
       2.718273             0.00651563205             0.00049974331           
       2.720913             0.00731366688            0.000527957339           
       2.723553             0.00719613104            0.000527211587           
       2.726194              0.0080150627            0.000581623751           
       2.728834             0.00773895543            0.000571786048           
       2.731475             0.00762250952            0.000523723196           
       2.734115             0.00611152948            0.000483505442           
       2.736755             0.00716333939            0.000527769315           
       2.739396             0.00713610496            0.000523713096           
       2.742036             0.00707385404            0.000545703134           
       2.744677             0.00664670697            0.000513247457           
       2.747317             0.00706520572            0.000525385416           
       2.749957             0.00719850826            0.000534040287           
       2.752598              0.0076005213            0.000554705241           
       2.755238             0.00842348672            0.000594506487           
       2.757878             0.00840843783            0.000588781927           
       2.760519             0.00742335077            0.000547352732           
       2.763159             0.00952151265            0.000613703264           
       2.765800             0.00708346051            0.000504445195           
       2.768440             0.00870815323            0.000563432576           
       2.771080             0.00855391584            0.000563081765           
       2.773721             0.00705712118            0.000524642968           
       2.776361             0.00696932501            0.000528562072           
       2.779001              0.0073828996            0.000563386862           
       2.781642             0.00724062371            0.000553820253           
       2.784282             0.00585140884            0.000506051247           
       2.786923             0.00682349758            0.000551283422           
       2.789563             0.00701660438            0.000538411292           
       2.792203              0.0069984543            0.000513670876           
       2.794844             0.00695960601            0.000561410184           
       2.797484             0.00684164663            0.000525324935           
       2.800125             0.00610664202            0.000521865214           
       2.802765             0.00743260958            0.000565837117           
       2.805405             0.00706745972            0.000553630336           
       2.808046             0.00630838371            0.000532249936           
       2.810686             0.00711846375            0.000519529555           
       2.813326             0.00658694213            0.000519109786           
       2.815967              0.0067429642             0.00054015534           
       2.818607             0.00583057977            0.000479316382           
       2.821248             0.00603861852            0.000477665558           
       2.823888             0.00679198568            0.000525849505           
       2.826528             0.00705199899             0.00051891554           
       2.829169             0.00656570487            0.000524459586           
       2.831809             0.00658652336            0.000532435498           
       2.834449             0.00648340494            0.000531589551           
       2.837090             0.00788533701            0.000566227306           
       2.839730             0.00720003373            0.000538421428           
       2.842371             0.00657592611            0.000515299683           
       2.845011             0.00680012497            0.000528187223           
       2.847651             0.00667015142            0.000523757607           
       2.850292             0.00633125753            0.000515286699           
       2.852932             0.00642782004            0.000530516464           
       2.855573             0.00608812472            0.000500833234           
       2.858213             0.00736693097            0.000578540982           
       2.860853             0.00691421666            0.000521377804           
       2.863494             0.00699415457            0.000542925502           
       2.866134              0.0074582146            0.000582723818           
       2.868774             0.00641432227            0.000531109008           
       2.871415             0.00697414549            0.000562427316           
       2.874055             0.00750002888            0.000557511425           
       2.876696             0.00682614098            0.000546261916           
       2.879336             0.00701046735            0.000533552539           
       2.881976             0.00717369877            0.000556692639           
       2.884617             0.00665215253            0.000528201261           
       2.887257             0.00792234053            0.000579403293           
       2.889897             0.00718744494            0.000540517803           
       2.892538             0.00742137168            0.000601698123           
       2.895178             0.00700743346            0.000528216767           
       2.897819             0.00719657356            0.000546055058           
       2.900459             0.00733140683            0.000540425153           
       2.903099             0.00757046292            0.000543544002           
       2.905740             0.00611489936            0.000501142706           
       2.908380             0.00760033802            0.000565054034           
       2.911021             0.00668570034            0.000538581115           
       2.913661             0.00727678363            0.000561716611           
       2.916301              0.0070459373            0.000553262056           
       2.918942             0.00695568545            0.000525808505           
       2.921582             0.00657481659            0.000534873085           
       2.924222              0.0073104024            0.000546408108           
       2.926863             0.00793829269            0.000593085695           
       2.929503             0.00692594542             0.00056054239           
       2.932144             0.00722978723            0.000549762677           
       2.934784             0.00613626636            0.000498177812           
       2.937424             0.00698077971            0.000536809669           
       2.940065              0.0067662929            0.000504137637           
       2.942705             0.00700162517            0.000512186292           
       2.945346               0.007184965             0.00055062993           
       2.947986             0.00671038796            0.000542592893           
       2.950626             0.00711749685            0.000555663392           
       2.953267             0.00701268486            0.000542645195           
       2.955907             0.00800134539            0.000601292632           
       2.958547             0.00700049827             0.00053096323           
       2.961188             0.00692814163            0.000551072706           
       2.963828             0.00797414122             0.00057831362           
       2.966469             0.00702426833            0.000532463057           
       2.969109             0.00593768473            0.000496803942           
       2.971749             0.00793936344            0.000570888827           
       2.974390             0.00614612916            0.000493597539           
       2.977030             0.00821564462            0.000583434104           
       2.979670             0.00794150676            0.000557953533           
       2.982311             0.00917734926            0.000621660724           
       2.984951             0.00712471351            0.000520953781           
       2.987592             0.00697970121            0.000525952472           
       2.990232              0.0072621415            0.000557942288           
       2.992872             0.00822086837            0.000559165824           
       2.995513             0.00965454139            0.000592833301           
       2.998153              0.0113662712            0.000654051365           
       3.000794               0.011310216            0.000631951845           
       3.003434              0.0118888793            0.000648894707           
       3.006074              0.0434019304             0.00122244182           
       3.008715               0.117135761             0.00193859388           
       3.011355                0.18525614             0.00235099081           
       3.013995              0.0965516912              0.0017018629           
       3.016636              0.0602720876              0.0013167112           
       3.019276               0.123218076             0.00185060679           
       3.021917                0.46922262             0.00347246278           
       3.024557                1.64940547             0.00640091152           
       3.027197                1.17989769             0.00527814665           
       3.029838               0.509531765             0.00351772518           
       3.032478               0.267663974              0.0025521876           
       3.035118              0.0710799948             0.00133284336           
       3.037759              0.0940956525             0.00153154408           
       3.040399                0.13403572             0.00188553567           
       3.043040               0.513787597             0.00373686347           
       3.045680               0.414834783              0.0031592003           
       3.048320              0.0855939561             0.00146625091           
       3.050961               0.106684704             0.00166580269           
       3.053601              0.0862697446             0.00144272214           
       3.056242              0.0555710783             0.00123111297           
       3.058882              0.0465711473             0.00120895876           
       3.061522              0.0361086296             0.00104443232           
       3.064163              0.0424124249             0.00111768087           
       3.066803               0.105588105             0.00185659987           
       3.069443               0.104605178              0.0019334166           
       3.072084              0.0554732396             0.00137097819           
       3.074724              0.0405796314             0.00130950515           
       3.077365              0.0867216897              0.0019816667           
       3.080005              0.0198190201            0.000952712391           
       3.082645              0.0110147217            0.000746127775           
       3.085286              0.0135044636            0.000832679933           
       3.087926              0.0101285739            0.000715572165           
       3.090566              0.0104291539            0.000711449963           
       3.093207              0.0108718722            0.000755887681           
       3.095847             0.00883395821            0.000653082337           
       3.098488             0.00890667235            0.000727130769           
       3.101128             0.00962123568            0.000760596376           
       3.103768             0.00909875743            0.000725740589           
       3.106409             0.00904282827            0.000770005662           
       3.109049              0.0078952607            0.000690459323           
       3.111690             0.00799132303            0.000682722153           
       3.114330             0.00892299447            0.000736770007           
       3.116970             0.00797641394            0.000701943038           
       3.119611              0.0134187188            0.000969108291           
       3.122251              0.0184109621             0.00118740985           
       3.124891              0.0366772001              0.0016915588           
       3.127532              0.0253052676             0.00137455644           
       3.130172              0.0138433511               0.001034232           
       3.132813             0.00925744795              0.0008326136           
       3.135453             0.00690113651             0.00071296135           
       3.138093             0.00725578925            0.000792120232           
       3.140734             0.00713586862            0.000724727625           
       3.143374              0.0067487943            0.000745354406           
       3.146014             0.00695161233            0.000814375932           
       3.148655             0.00699458306            0.000759374013           
       3.151295             0.00654658773            0.000782887704           
       3.153936             0.00619614488            0.000735726377           
       3.156576             0.00544681458            0.000680423033           
       3.159216             0.00505117646            0.000658522806           
       3.161857             0.00499675924            0.000652300442           
       3.164497             0.00817674878            0.000876753323           
       3.167138              0.0087904839            0.000939282869           
       3.169778             0.00531753738            0.000718494552           
       3.172418             0.00684186041            0.000806705858           
       3.175059             0.00680186099            0.000713085261           
       3.177699             0.00526931428            0.000664623642           
       3.180339             0.00595757949            0.000757171752           
       3.182980             0.00574790215            0.000768939235           
       3.185620             0.00554259119            0.000768986109           
       3.188261             0.00607646938            0.000819538829           
       3.190901             0.00599335555            0.000748565314           
       3.193541             0.00650249855            0.000819290387           
       3.196182             0.00651126769            0.000854393638           
       3.198822             0.00592524759            0.000815312353           
       3.201463             0.00715404155            0.000880438474           
       3.204103             0.00578735447            0.000787069267           
       3.206743             0.00664918491            0.000843560729           
       3.209384              0.0068713991            0.000926499492           
       3.212024             0.00585617178            0.000797428105           
       3.214664             0.00660797192            0.000963238009           
       3.217305             0.00644933926            0.000904567139           
       3.219945             0.00751106186             0.00100475034           
       3.222586             0.00450956192            0.000741535726           
       3.225226             0.00599696635            0.000948630402           
       3.227866             0.00638192081            0.000894434124           
       3.230507             0.00686255301            0.000961458565           
       3.233147             0.00615669971            0.000918024951           
       3.235787             0.00528537322            0.000870468688           
       3.238428             0.00801319964             0.00115661996           
       3.241068             0.00508582162            0.000861594569           
       3.243709             0.00592403154            0.000960723001           
       3.246349             0.00570347826            0.000859331035           
       3.248989             0.00669188923             0.00109908929           
       3.251630             0.00534835263            0.000946199262           
       3.254270             0.00546644953            0.000854930935           
       3.256911             0.00555728529            0.000940542946           
       3.259551               0.005345806            0.000993124954           
       3.262191             0.00594560289             0.00106982412           
       3.264832             0.00648817747             0.00116769607           
       3.267472             0.00572884745             0.00102933017           
       3.270112             0.00628951679             0.00119190619           
       3.272753             0.00739735634              0.0011831682           
       3.275393             0.00334055728            0.000811271383           
       3.278034             0.00412416592            0.000901922456           
       3.280674             0.00509671556             0.00108800689           
       3.283314             0.00631094739             0.00108278777           
       3.285955             0.00533372795               0.001027067           
       3.288595             0.00390068287            0.000977165906           
       3.291235             0.00439903718             0.00106675897           
       3.293876             0.00559597368             0.00122045474           
       3.296516             0.00711050932             0.00132073468           
       3.299157             0.00716080973             0.00130874413           
       3.301797             0.00652787993             0.00142536278           
       3.304437             0.00584255003             0.00116828671           
       3.307078             0.00680178271             0.00138857193           
       3.309718             0.00571072187             0.00131328145           
       3.312359             0.00483769444             0.00120902331           
       3.314999             0.00817098869             0.00154705084           
       3.317639             0.00482728119             0.00113722856           
       3.320280             0.00393356577             0.00109145852           
       3.322920             0.00498128428             0.00124891665           
       3.325560             0.00563795285             0.00132959221           
       3.328201             0.00532162599             0.00116338044           
       3.330841             0.00376604343             0.00119111895           
       3.333482              0.0043689187             0.00121265358           
       3.336122             0.00571008055              0.0013869809           
       3.338762             0.00671453683             0.00173739117           
       3.341403             0.00696612833             0.00169096333           
       3.344043             0.00217258838            0.000906641769           
       3.346683             0.00629541566             0.00157561558           
       3.349324             0.00847802687             0.00205579061           
       3.351964             0.00548274707             0.00174821824           
       3.354605              0.0021679758             0.00125723936           
       3.357245              0.0053494213             0.00178156598           
       3.359885             0.00301313639              0.0010701471           
       3.362526              0.0047460815             0.00167957697           
       3.365166             0.00470685936             0.00157760676           
       3.367807             0.00514186787             0.00211025339           
       3.370447             0.00594167461              0.0018817079           
       3.373087             0.00677077263             0.00214804881           
       3.375728             0.00258792849             0.00149878865           
       3.378368             0.00383840476             0.00270900336           
       3.381008             0.00212607535             0.00150314758           
       3.383649              0.0068313132             0.00216146821           
       3.386289             0.00188149128             0.00134254361           
       3.388930             0.00718296536             0.00414927766           
       3.391570             0.00946101572             0.00336861968           
       3.394210             0.00384417458             0.00271740655           
       3.396851              0.0047574398              0.0033815321           
       3.399491             0.00460987035             0.00332960957           
       3.402131             0.00946266414             0.00674919781           
       3.404772           -2.57298269e-05                         0           
       3.407412                       nan                       nan           
       3.410053              0.0180518068              0.0132026083           
       3.412693                       nan                       nan           
       3.415333             0.00875617834             0.00920388677           
