################################################################################
# EDF_DataBlockID                     0.Image.Psd
# EDF_BinarySize                      2105344
# EDF_HeaderSize                      2560
# ByteOrder                           LowByteFirst
# DataType                            FloatValue
# Dim_1                               512
# Dim_2                               1028
# Image                               0
# HeaderID                            EH:000000:000000:000000
# Size                                2105344
# Center_1                            304.9000
# Center_2                            588.7000
# Comment                             Xenocs_Cell_Window - 20251028_20perc_iodine_1.23mg
# DDummy                              0.6
# Date                                2025-10-31T11:39:45
# Delta                               21.910000
# Dummy                               -1.5
# ExposureTime                        360
# Gamma                               15.360000
# Intensity1                          8.52085e-10
# PSize_1                             7.5e-05
# PSize_2                             7.5e-05
# Pressure                            0.0327349
# SampleDistance                      0.115750
# SampleEnvKind                       large
# SampleEnvPN                         ElectroChemical cell
# SampleEnvSN                         1141
# Thickness                           0
# Wavelength                          1.541891e-10
# Wavelength                          1.54189e-10
# aux                                 0
# aux_dial                            0.002375
# beamx                               588.434
# beamx_dial                          588.434
# beamz                               657.808
# beamz_dial                          657.808
# det0x                               0
# det0x_dial                          6.36945
# det0xvd                             0
# det0xvd_dial                        0
# det0y                               450.002
# det0y_dial                          481.635
# det0z                               0
# det0z_dial                          1.23302
# det0zvd                             0
# det0zvd_dial                        0
# mag                                 1.818
# mag_dial                            1.818
# om                                  0.2499
# om_dial                             -0.610199
# phi                                 -0.0120535
# phi_dial                            0
# ry                                  0.599993
# ry_dial                             0.599993
# s1bot                               0.8
# s1bot_dial                          -1.66094
# s1hl                                0.8
# s1hl_dial                           -0.608437
# s1hr                                0.8
# s1hr_dial                           0.970938
# s1top                               0.8
# s1top_dial                          -0.461562
# s2bot                               0.45
# s2bot_dial                          1.36109
# s2hl                                0.45
# s2hl_dial                           -0.83375
# s2hr                                0.45
# s2hr_dial                           -0.118594
# s2top                               0.45
# s2top_dial                          1.44734
# w2theta                             32
# w2theta_dial                        32
# waxsch                              19.2605
# waxsch_dial                         -32.7355
# waxsh                               137.085
# waxsh_dial                          -43.5338
# waxsth                              26.0607
# waxsth_dial                         -19.4086
# waxsz                               67.0407
# waxsz_dial                          -23.7954
# wind                                65.9854
# wind_dial                           66.0041
# wpsi                                124
# wpsi_dial                           124
# wstod                               115
# wstod_dial                          115
# x                                   0
# x_dial                              1.00969
# z                                   0
# z_dial                              13.3172
# CountCutoff                         6807993
# DetectorModel                       Dectris EIGER2 Si 500K, S/N E-01-0554
# ThresholdSetting                    4023.88989258
# Saturation                          0
# FlatField                           Corrected
# BackgroundReductionExtra            0.02
# BackgroundCorrectionConstant        0.0026712
# Detector                            0
# Monitor                             0
# Pil_Roi0                            0
# SumForIntensity1                    3.06751e+08
# TransmittedFlux                     852085
# det                                 0
# mon                                 0
# pilai0                              3.06751e+08
# pilai1                              779692
# pilct0                              5.31273e+08
# pilct1                              779692
# pilroi0                             0
# pilroi1                             0
# sec                                 1
# title                               20251028_20perc_iodine_1.23mg_1_00630.edf
# usaxs0                              0
# Operation                           Azimuthal average I(q)
# Error_model                         ErrorModel.poisson
# Geometrical_correction              True
# Transmission_correction             True
# Thickness_correction                False
# Binning mode                        Uniform
# Binning factor                      1.0
# Psi                                 0.0
# Omega                               0.2499
# MaskInvalidPixels                   True
# DetectorEdge                        3
# MaskFiles                           ['WAXS_corrected.edf']
################################################################################
    q(A⁻¹)                Intensity(a.u.)            Sigma_I(a.u.)            
       0.693100             0.00829017074             0.00608071076           
       0.695741             0.00567129708             0.00410413395           
       0.698381           -2.38079929e-05                         0           
       0.701021             0.00884637022             0.00887621727           
       0.703662             0.00286372182             0.00291507845           
       0.706302             0.00351132938             0.00249906627           
       0.708942             0.00569813187             0.00410893518           
       0.711583              0.0155207026             0.00587224984           
       0.714223             0.00588773972             0.00417564007           
       0.716864               0.010147729             0.00358677363           
       0.719504             0.00589899879             0.00295104986           
       0.722144             0.00500810154             0.00251808726           
       0.724785             0.00949186102             0.00276529394           
       0.727425             0.00593115302             0.00295716276           
       0.730065              0.0102129828             0.00274487885           
       0.732706             0.00513092204             0.00163377909           
       0.735346             0.00260675228             0.00151799247           
       0.737987             0.00745373103             0.00181385959           
       0.740627             0.00686817243             0.00259790871           
       0.743267             0.00826931118             0.00190932614           
       0.745908              0.0109543855              0.0023842302           
       0.748548             0.00922682894             0.00201694865           
       0.751189              0.0120017176             0.00309960847           
       0.753829             0.00539040796             0.00190950614           
       0.756469              0.0083464036             0.00191599019           
       0.759110             0.00829743712             0.00201319624           
       0.761750             0.00607114729             0.00152268536           
       0.764390              0.0112435396             0.00216886131           
       0.767031             0.00562814716              0.0013288077           
       0.769671             0.00731889355             0.00189023922           
       0.772312             0.00504092573             0.00119426459           
       0.774952             0.00873565947             0.00212301455           
       0.777592             0.00712531178             0.00139657495           
       0.780233             0.00838059781             0.00182735777           
       0.782873             0.00583186376             0.00145791566           
       0.785513             0.00662941772              0.0016617672           
       0.788154             0.00841439857             0.00156613033           
       0.790794             0.00916952302             0.00195455893           
       0.793435             0.00773447186             0.00161265306           
       0.796075             0.00719236621              0.0014980547           
       0.798715             0.00911308644             0.00199267864           
       0.801356             0.00608809239             0.00140178385           
       0.803996             0.00634626294             0.00145912394           
       0.806637             0.00864273406             0.00135509875           
       0.809277              0.0094799394             0.00153613536           
       0.811917             0.00632408063             0.00117290558           
       0.814558             0.00630206082             0.00121690172           
       0.817198             0.00806935818             0.00130821386           
       0.819838             0.00671456884             0.00120775968           
       0.822479              0.0075223279             0.00150112443           
       0.825119             0.00776829467             0.00129836598           
       0.827760             0.00804657318             0.00133854385           
       0.830400             0.00687919374             0.00116485293           
       0.833040             0.00713142471             0.00124257936           
       0.835681             0.00643490172             0.00134184402           
       0.838321             0.00867945668             0.00130800999           
       0.840961             0.00817341002             0.00138296894           
       0.843602             0.00626998856             0.00111079224           
       0.846242             0.00801877247             0.00125599707           
       0.848883               0.005759757             0.00108934022           
       0.851523             0.00641370591             0.00113523938           
       0.854163             0.00954196997             0.00147255364           
       0.856804             0.00750812813             0.00117447526           
       0.859444             0.00739503455             0.00114205911           
       0.862085              0.0092198405             0.00132908335           
       0.864725             0.00581554248             0.00108026345           
       0.867365             0.00778050317             0.00115865544           
       0.870006              0.0082603607             0.00113764786           
       0.872646             0.00689547464             0.00108997411           
       0.875286             0.00588267994             0.00096855596           
       0.877927             0.00633345612            0.000969759004           
       0.880567             0.00783151145              0.0011172092           
       0.883208             0.00766442807             0.00109481502           
       0.885848             0.00888711069             0.00122406478           
       0.888488             0.00782331189             0.00107719342           
       0.891129             0.00716371317             0.00105839955           
       0.893769             0.00687319155            0.000992164116           
       0.896410             0.00658676488            0.000905564808           
       0.899050             0.00753081983             0.00106485364           
       0.901690             0.00767839392             0.00117124494           
       0.904331             0.00870729664             0.00110575756           
       0.906971             0.00745050234              0.0010881416           
       0.909611             0.00800894417             0.00102700932           
       0.912252             0.00602277017            0.000919900937           
       0.914892             0.00689034994             0.00107522415           
       0.917533             0.00612260976            0.000958817864           
       0.920173             0.00606047208            0.000885068762           
       0.922813              0.0072485715             0.00101574764           
       0.925454             0.00818662574             0.00097203635           
       0.928094             0.00811206835             0.00103299454           
       0.930734             0.00744468267             0.00106540313           
       0.933375             0.00850190704             0.00112734939           
       0.936015             0.00663454279            0.000904469635           
       0.938656              0.0069656342            0.000994198028           
       0.941296             0.00734302357            0.000925103235           
       0.943936             0.00784823582            0.000937896702           
       0.946577             0.00551972918            0.000781352754           
       0.949217              0.0066285027            0.000787391187           
       0.951858             0.00715459261            0.000856326086           
       0.954498             0.00865424378             0.00109012338           
       0.957138             0.00788576269            0.000985824087           
       0.959779             0.00694304073            0.000911882342           
       0.962419             0.00823866628            0.000986720091           
       0.965059             0.00772154487             0.00100467438           
       0.967700               0.007124894            0.000988431415           
       0.970340              0.0074935295            0.000897005794           
       0.972981             0.00728790568            0.000805967492           
       0.975621             0.00737324114            0.000862415715           
       0.978261             0.00812199359            0.000860048126           
       0.980902             0.00766498517            0.000999635542           
       0.983542             0.00837316641            0.000925233647           
       0.986182             0.00738719209            0.000853230877           
       0.988823             0.00864719213            0.000896364043           
       0.991463             0.00876838409            0.000963005141           
       0.994104             0.00795767377            0.000894944323           
       0.996744             0.00872279199            0.000955712964           
       0.999384             0.00898689411            0.000867569999           
       1.002025             0.00751118638            0.000885257442           
       1.004665             0.00838335419            0.000854695911           
       1.007306             0.00707723694            0.000781278581           
       1.009946              0.0076290431            0.000827274587           
       1.012586             0.00628884121            0.000731530875           
       1.015227             0.00923539224            0.000952370374           
       1.017867             0.00924968138            0.000916001595           
       1.020507             0.00886143149            0.000868451051           
       1.023148             0.00842992421            0.000913982095           
       1.025788             0.00841561358            0.000837337871           
       1.028429             0.00794302017            0.000852261532           
       1.031069              0.0075298262            0.000780872078           
       1.033709             0.00775366968            0.000842316555           
       1.036350             0.00724229474            0.000731142844           
       1.038990             0.00659082534            0.000710300887           
       1.041630             0.00882259244            0.000857154443           
       1.044271             0.00816555879            0.000775525271           
       1.046911             0.00824301218            0.000819611141           
       1.049552               0.008372063            0.000867819957           
       1.052192             0.00743231922            0.000746632066           
       1.054832             0.00809911143             0.00078649506           
       1.057473             0.00875935948            0.000806301373           
       1.060113              0.0082622459            0.000763723235           
       1.062754             0.00713111247            0.000724408989           
       1.065394             0.00813980938            0.000818264087           
       1.068034             0.00898616056            0.000782256909           
       1.070675             0.00846015312            0.000791747854           
       1.073315             0.00846459065            0.000803307109           
       1.075955             0.00848618208            0.000759334439           
       1.078596             0.00798431761            0.000782794978           
       1.081236             0.00724095148            0.000713830877           
       1.083877             0.00801588839            0.000744320305           
       1.086517             0.00906103009            0.000848567023           
       1.089157             0.00906939983            0.000880889914           
       1.091798             0.00857752869            0.000751056525           
       1.094438             0.00954597335            0.000789764599           
       1.097078             0.00751547258            0.000672096795           
       1.099719             0.00963915315            0.000823305531           
       1.102359             0.00919644793            0.000753121385           
       1.105000             0.00801783484             0.00078632299           
       1.107640             0.00902216684            0.000797553095           
       1.110280             0.00949439139            0.000746507741           
       1.112921             0.00901404598            0.000781362101           
       1.115561             0.00932150728            0.000755178112           
       1.118202             0.00834274867            0.000715105193           
       1.120842             0.00860667585            0.000763375938           
       1.123482             0.00918144221            0.000785010033           
       1.126123             0.00914112149            0.000751301009           
       1.128763             0.00865151738            0.000735915369           
       1.131403             0.00899238086            0.000722951894           
       1.134044             0.00898454083            0.000743594896           
       1.136684             0.00824563703            0.000759501095           
       1.139325             0.00913892467            0.000736575459           
       1.141965             0.00938248572            0.000751260014           
       1.144605             0.00945583194            0.000719123093           
       1.147246             0.00915951484            0.000724337116           
       1.149886             0.00865102806            0.000701445446           
       1.152527             0.00941056374            0.000742228952           
       1.155167             0.00771279761            0.000639125441           
       1.157807             0.00907024514            0.000743115994           
       1.160448             0.00843019077            0.000699599405           
       1.163088             0.00912854915            0.000694405239           
       1.165728             0.00991567967             0.00074306176           
       1.168369             0.00889720247             0.00071036941           
       1.171009             0.00876287514            0.000684170315           
       1.173650             0.00916280396            0.000717965189           
       1.176290             0.00912499573            0.000700164028           
       1.178930             0.00981938395            0.000711855757           
       1.181571              0.0101337815             0.00073750265           
       1.184211             0.00960672613            0.000720613881           
       1.186851              0.0103827056            0.000732435526           
       1.189492             0.00935097737            0.000690416303           
       1.192132             0.00867175225            0.000657408979           
       1.194773             0.00990654563            0.000705727002           
       1.197413             0.00932775988            0.000656136168           
       1.200053             0.00951593985            0.000679560372           
       1.202694             0.00965510205            0.000650931097           
       1.205334              0.0113699125            0.000761250858           
       1.207975              0.0096056705            0.000667885234           
       1.210615              0.0105116209            0.000770753047           
       1.213255              0.0100962181            0.000676416503           
       1.215896             0.00915147793            0.000655660453           
       1.218536             0.00915101789            0.000630429739           
       1.221176               0.010153078            0.000721958708           
       1.223817              0.0101674818            0.000678195446           
       1.226457              0.0105819905            0.000705820556           
       1.229098              0.0100268322            0.000687023087           
       1.231738              0.0100208676            0.000690198988           
       1.234378              0.0104773139            0.000663151704           
       1.237019              0.0102072257            0.000674505937           
       1.239659              0.0105115744            0.000678525363           
       1.242299              0.0105203827            0.000670185227           
       1.244940             0.00975374646            0.000627599255           
       1.247580              0.0104591369            0.000669772125           
       1.250221              0.0112540745            0.000690471857           
       1.252861              0.0110209166            0.000650487698           
       1.255501             0.00937060975            0.000651279694           
       1.258142             0.00950165677            0.000616258601           
       1.260782                0.01088145             0.00067375722           
       1.263423              0.0101689366            0.000625849754           
       1.266063              0.0103031814            0.000645698402           
       1.268703             0.00982121866            0.000625184055           
       1.271344              0.0109751024            0.000683288536           
       1.273984              0.0112574424            0.000668356439           
       1.276624               0.010194325            0.000624066699           
       1.279265              0.0110028871            0.000659110164           
       1.281905             0.00963454548            0.000619503118           
       1.284546              0.0103067436            0.000619342984           
       1.287186              0.0111942937            0.000633264024           
       1.289826             0.00931869129             0.00060893481           
       1.292467              0.0109248482            0.000644805052           
       1.295107              0.0109952673            0.000640454004           
       1.297747             0.00921541605            0.000561069638           
       1.300388              0.0105313758            0.000653850774           
       1.303028              0.0101701926            0.000613407968           
       1.305669              0.0104578635            0.000636833739           
       1.308309             0.00949631154            0.000600874921           
       1.310949              0.0096655144            0.000605595189           
       1.313590              0.0102114989            0.000603007084           
       1.316230              0.0114677076            0.000681925462           
       1.318871              0.0107569393            0.000646834176           
       1.321511             0.00992591737            0.000609829768           
       1.324151              0.0106110729            0.000611833142           
       1.326792              0.0103976797            0.000609394152           
       1.329432              0.0106109394            0.000611267614           
       1.332072              0.0115458682            0.000628125953           
       1.334713              0.0109027335             0.00062997396           
       1.337353              0.0122134707            0.000639443367           
       1.339994              0.0113765479            0.000647633054           
       1.342634              0.0108316684            0.000605984617           
       1.345274              0.0115676711            0.000648093704           
       1.347915              0.0112616919            0.000621806081           
       1.350555              0.0107676339             0.00061866224           
       1.353195              0.0101710253            0.000604231904           
       1.355836              0.0111624678            0.000623126232           
       1.358476              0.0104856609            0.000586517479           
       1.361117              0.0119090847            0.000625918748           
       1.363757              0.0110876303            0.000622387258           
       1.366397              0.0114279631             0.00061274603           
       1.369038              0.0112531789            0.000614096587           
       1.371678              0.0104554043            0.000586710347           
       1.374319              0.0115620576            0.000611667005           
       1.376959              0.0114429423            0.000602388585           
       1.379599              0.0102112125            0.000609843814           
       1.382240              0.0123644575            0.000630704592           
       1.384880              0.0113625275            0.000640420266           
       1.387520              0.0108433654            0.000594169271           
       1.390161               0.010414909            0.000553056694           
       1.392801              0.0113986983            0.000602832779           
       1.395442              0.0114127046            0.000611441406           
       1.398082             0.00988083469            0.000532776362           
       1.400722               0.011657207            0.000606163661           
       1.403363               0.010599093            0.000608414045           
       1.406003              0.0113335129            0.000588790336           
       1.408644              0.0102889143            0.000587684405           
       1.411284              0.0105416795            0.000563279032           
       1.413924              0.0105928548            0.000562551329           
       1.416565              0.0107227174             0.00056376584           
       1.419205              0.0111209917            0.000598920021           
       1.421845              0.0118179404            0.000617039386           
       1.424486              0.0114481051            0.000583762304           
       1.427126              0.0101098582            0.000569870902           
       1.429767              0.0099636743            0.000532288678           
       1.432407              0.0113030245            0.000593312815           
       1.435047              0.0112410674            0.000555689924           
       1.437688              0.0119497552            0.000581505262           
       1.440328              0.0104548393            0.000555128599           
       1.442968              0.0113817402            0.000592191897           
       1.445609              0.0117507116            0.000582626145           
       1.448249              0.0108974316            0.000575279775           
       1.450890             0.00994838675            0.000546071418           
       1.453530              0.0112054861            0.000606322453           
       1.456170              0.0117270712            0.000601989779           
       1.458811              0.0114767265            0.000569458068           
       1.461451              0.0110595319            0.000560478396           
       1.464092             0.00903571681            0.000509919838           
       1.466732              0.0106916568            0.000549914256           
       1.469372              0.0108914956            0.000542040314           
       1.472013              0.0117685045            0.000607682407           
       1.474653              0.0113728181            0.000588163834           
       1.477293              0.0108375159            0.000586256261           
       1.479934               0.010334874            0.000546284248           
       1.482574              0.0109808834            0.000544710267           
       1.485215               0.011223748            0.000560957944           
       1.487855              0.0109039018            0.000560201048           
       1.490495               0.010823954            0.000556087969           
       1.493136              0.0109979778            0.000552857178           
       1.495776              0.0111763082            0.000554783728           
       1.498416              0.0113578197             0.00057756838           
       1.501057              0.0105031919            0.000543173187           
       1.503697              0.0112192047            0.000548840734           
       1.506338              0.0105382686            0.000541644546           
       1.508978              0.0097254212            0.000515218953           
       1.511618              0.0123190635            0.000617552787           
       1.514259              0.0100419201            0.000538300556           
       1.516899              0.0113378514            0.000556920175           
       1.519540              0.0105777305            0.000546602071           
       1.522180              0.0112622264            0.000568964994           
       1.524820              0.0104421725            0.000544785318           
       1.527461              0.0103582756            0.000545275872           
       1.530101              0.0103539877            0.000539710785           
       1.532741              0.0101869109            0.000532231791           
       1.535382               0.010883548            0.000558985746           
       1.538022              0.0108727557            0.000526333011           
       1.540663              0.0105195015            0.000556831408           
       1.543303              0.0102640634            0.000510711156           
       1.545943              0.0112810889            0.000566698106           
       1.548584              0.0108853224            0.000566661373           
       1.551224              0.0108847668            0.000523918619           
       1.553864              0.0113207679             0.00056459694           
       1.556505              0.0100061475            0.000512770218           
       1.559145              0.0103186336            0.000527094133           
       1.561786              0.0100255014            0.000519953472           
       1.564426              0.0106789806            0.000519940246           
       1.567066              0.0103732457            0.000536942252           
       1.569707              0.0109524259            0.000541817708           
       1.572347              0.0101779797            0.000539599048           
       1.574988             0.00989787348            0.000506491064           
       1.577628             0.00934971598            0.000513312305           
       1.580268             0.00984093511            0.000510242573           
       1.582909              0.0100721423             0.00054715328           
       1.585549             0.00969518736            0.000521232056           
       1.588189             0.00940437536            0.000502151057           
       1.590830             0.00929857864            0.000498691837           
       1.593470             0.00869116981            0.000501219137           
       1.596111             0.00961439981            0.000514680417           
       1.598751              0.0100646068            0.000510250827           
       1.601391              0.0100510832            0.000521157878           
       1.604032             0.00861381854            0.000492545249           
       1.606672             0.00901460843            0.000489561154           
       1.609312              0.0104678353            0.000550698384           
       1.611953             0.00842149068             0.00048335737           
       1.614593             0.00982470719            0.000512115135           
       1.617234             0.00903693927            0.000509021518           
       1.619874             0.00916681276            0.000510640985           
       1.622514             0.00840202312            0.000482206687           
       1.625155             0.00865118843            0.000492195028           
       1.627795             0.00994961589            0.000514907206           
       1.630436             0.00898935915            0.000486873901           
       1.633076             0.00936025327            0.000503332352           
       1.635716              0.0095198709            0.000499707886           
       1.638357             0.00875470236            0.000480468138           
       1.640997             0.00876113066              0.0004952042           
       1.643637             0.00977893987            0.000509111931           
       1.646278             0.00863942752            0.000493566255           
       1.648918             0.00922032558            0.000511280489           
       1.651559             0.00909475888            0.000511728306           
       1.654199              0.0083453031            0.000476753333           
       1.656839             0.00903596191            0.000496262487           
       1.659480             0.00913518516            0.000517717382           
       1.662120             0.00867211032            0.000475085102           
       1.664761             0.00907862644            0.000504924834           
       1.667401             0.00956608926            0.000495386863           
       1.670041             0.00932636104            0.000496598513           
       1.672682             0.00930493998            0.000493989125           
       1.675322              0.0084391981            0.000467422323           
       1.677962             0.00871216826            0.000469682675           
       1.680603             0.00935062464            0.000488085725           
       1.683243             0.00923693365            0.000506121206           
       1.685884             0.00898031558            0.000502726462           
       1.688524              0.0091815327            0.000498501384           
       1.691164             0.00809858095            0.000468286677           
       1.693805             0.00856279098            0.000486810449           
       1.696445             0.00830837185            0.000482305399           
       1.699085              0.0084070867            0.000468905293           
       1.701726              0.0083885346            0.000451209721           
       1.704366             0.00879374489            0.000486682317           
       1.707007             0.00872167657            0.000473879807           
       1.709647             0.00930680664            0.000495046047           
       1.712287             0.00951539778            0.000504920001           
       1.714928             0.00896425669            0.000494030477           
       1.717568              0.0085770139            0.000455215864           
       1.720209              0.0086637727            0.000479212491           
       1.722849             0.00856260633            0.000473957153           
       1.725489             0.00934629363            0.000495587478           
       1.728130             0.00824184338             0.00049457431           
       1.730770             0.00856285974            0.000478772852           
       1.733410             0.00826597178            0.000463005498           
       1.736051             0.00899798744            0.000486434418           
       1.738691             0.00804044877             0.00045050289           
       1.741332             0.00775159922            0.000455271039           
       1.743972             0.00861720608              0.0004957002           
       1.746612             0.00859932729             0.00047550451           
       1.749253             0.00814141027            0.000471807944           
       1.751893             0.00859187196            0.000481127045           
       1.754533             0.00873257919            0.000484597723           
       1.757174             0.00886331863             0.00048363996           
       1.759814             0.00761946595            0.000441624131           
       1.762455              0.0088302417            0.000484149023           
       1.765095             0.00823187438            0.000447179931           
       1.767735             0.00924137352            0.000488423632           
       1.770376             0.00798800123            0.000455292903           
       1.773016             0.00828986351            0.000460709005           
       1.775657             0.00899514641            0.000473001842           
       1.778297             0.00869097025            0.000460932146           
       1.780937             0.00875058454            0.000488179442           
       1.783578              0.0083916737            0.000466109524           
       1.786218             0.00794207971            0.000473226208           
       1.788858             0.00872775422            0.000471157606           
       1.791499             0.00845962251            0.000458654141           
       1.794139             0.00966182152            0.000486184881           
       1.796780             0.00921469149            0.000472512811           
       1.799420             0.00885607572            0.000460661745           
       1.802060             0.00902703905            0.000468843591           
       1.804701             0.00883732515            0.000445170701           
       1.807341             0.00917599107            0.000476656451           
       1.809981              0.0088661746            0.000470102619           
       1.812622              0.0100039664            0.000490366391           
       1.815262              0.0091475167            0.000478867085           
       1.817903             0.00915246571            0.000471899374           
       1.820543             0.00933436814            0.000483991699           
       1.823183             0.00912898231            0.000478374272           
       1.825824             0.00946156181            0.000465269807           
       1.828464             0.00881683121            0.000468245694           
       1.831105             0.00875860136             0.00045379372           
       1.833745             0.00872820776            0.000462680499           
       1.836385             0.00866111982            0.000474052248           
       1.839026             0.00803937538            0.000455277342           
       1.841666             0.00899911397            0.000479978788           
       1.844306             0.00959905224            0.000482193933           
       1.846947             0.00907699462            0.000473008478           
       1.849587             0.00871778954            0.000511876866           
       1.852228             0.00877675076            0.000464426145           
       1.854868             0.00813856211              0.0004724244           
       1.857508             0.00832183092            0.000473028581           
       1.860149             0.00859063892            0.000489339595           
       1.862789             0.00841732548            0.000467537086           
       1.865429             0.00881676241            0.000499482666           
       1.868070             0.00908908614             0.00050037852           
       1.870710             0.00913975008            0.000490203049           
       1.873351             0.00893174829            0.000490583618           
       1.875991             0.00857753339              0.0004886035           
       1.878631             0.00900827566            0.000491131531           
       1.881272             0.00971159197            0.000506526895           
       1.883912             0.00884463111            0.000503067812           
       1.886553             0.00806294436            0.000474953109           
       1.889193             0.00962353373            0.000517998488           
       1.891833             0.00952388716             0.00053516923           
       1.894474             0.00869040392            0.000506763307           
       1.897114             0.00885358527            0.000494966881           
       1.899754             0.00940046396            0.000512158672           
       1.902395             0.00847164382            0.000476692864           
       1.905035             0.00904421253            0.000521680826           
       1.907676             0.00876689913            0.000484089001           
       1.910316             0.00872480995            0.000495748065           
       1.912956             0.00845786869            0.000477366908           
       1.915597             0.00838078745            0.000477842428           
       1.918237             0.00935996283            0.000521527689           
       1.920878             0.00965373553            0.000527480623           
       1.923518              0.0103013308            0.000545116977           
       1.926158             0.00881921676            0.000497835143           
       1.928799             0.00864070377            0.000487066994           
       1.931439             0.00801933427            0.000481534685           
       1.934079             0.00832431715            0.000511444532           
       1.936720             0.00859045811            0.000481383758           
       1.939360             0.00840620714            0.000508031887           
       1.942001             0.00937799836            0.000491816112           
       1.944641             0.00879081319            0.000485549672           
       1.947281             0.00802864544            0.000459746686           
       1.949922             0.00911706248             0.00050604375           
       1.952562             0.00848391778            0.000503457778           
       1.955202             0.00776528495            0.000481076137           
       1.957843             0.00748732732            0.000460137269           
       1.960483             0.00766159823            0.000486639287           
       1.963124             0.00817518635             0.00049237264           
       1.965764              0.0082517463            0.000466490291           
       1.968404             0.00889511333            0.000479758334           
       1.971045              0.0088996109            0.000489262492           
       1.973685             0.00813866147            0.000490769412           
       1.976326             0.00901273483            0.000509353236           
       1.978966             0.00843781008            0.000497164742           
       1.981606             0.00835941497            0.000505170202           
       1.984247             0.00801850901            0.000491509472           
       1.986887             0.00884279822            0.000509971828           
       1.989527             0.00877904928            0.000502658025           
       1.992168             0.00763994741            0.000486538982           
       1.994808             0.00796322418            0.000494596785           
       1.997449             0.00753780031            0.000471321636           
       2.000089             0.00810140467            0.000486687249           
       2.002729             0.00792238432            0.000481568479           
       2.005370             0.00798291489            0.000478203392           
       2.008010             0.00824428442            0.000507178101           
       2.010650             0.00863997648            0.000523080937           
       2.013291             0.00749092517            0.000467304828           
       2.015931             0.00812158812            0.000483139043           
       2.018572             0.00734633306             0.00049148034           
       2.021212             0.00829714997            0.000512934034           
       2.023852             0.00834342229             0.00048681972           
       2.026493             0.00829850318            0.000507198949           
       2.029133             0.00785199273            0.000483436584           
       2.031774             0.00797609245            0.000511349581           
       2.034414             0.00855406932             0.00048726206           
       2.037054             0.00792950635            0.000481027643           
       2.039695             0.00802214539            0.000480175214           
       2.042335             0.00806589472            0.000500366297           
       2.044975             0.00741923647              0.0004740699           
       2.047616             0.00736216062            0.000471069799           
       2.050256             0.00801072681            0.000496031465           
       2.052897             0.00824652568            0.000512557197           
       2.055537             0.00641532596            0.000436919036           
       2.058177             0.00829737687            0.000486591263           
       2.060818              0.0070101517            0.000468536846           
       2.063458             0.00805241014            0.000523301649           
       2.066098             0.00898967083            0.000521587285           
       2.068739             0.00777618912            0.000492648593           
       2.071379             0.00709508282            0.000482851887           
       2.074020             0.00802047848            0.000502218651           
       2.076660             0.00766391942             0.00049489705           
       2.079300             0.00780549779            0.000511684801           
       2.081941             0.00739970049            0.000456164696           
       2.084581             0.00763518731            0.000489087657           
       2.087222             0.00710396455            0.000454973855           
       2.089862             0.00677290388            0.000483851656           
       2.092502             0.00691534547              0.0004739315           
       2.095143             0.00858142724            0.000545181816           
       2.097783             0.00700807472            0.000476992806           
       2.100423             0.00738438738            0.000471805403           
       2.103064             0.00644904763            0.000457507082           
       2.105704             0.00780803617            0.000500915441           
       2.108345             0.00741801496            0.000469072413           
       2.110985             0.00710977631             0.00049048382           
       2.113625             0.00730483994            0.000501505244           
       2.116266             0.00757949236            0.000518093925           
       2.118906             0.00689059195            0.000460369466           
       2.121546             0.00765625013            0.000476007835           
       2.124187             0.00709814793            0.000481105261           
       2.126827             0.00706929425            0.000485484997           
       2.129468             0.00812191376            0.000521704869           
       2.132108             0.00701284728            0.000471652093           
       2.134748             0.00722583499            0.000476903325           
       2.137389             0.00715547884            0.000495100546           
       2.140029             0.00731449276            0.000448142202           
       2.142670             0.00745863491            0.000483635283           
       2.145310             0.00715362798            0.000461005593           
       2.147950             0.00720737498            0.000476279569           
       2.150591             0.00747433904            0.000480118515           
       2.153231             0.00709730323            0.000481581171           
       2.155871             0.00603393159            0.000428973074           
       2.158512             0.00714294742            0.000487002856           
       2.161152             0.00729556008            0.000476754212           
       2.163793             0.00751118073            0.000481570375           
       2.166433             0.00732405193            0.000488323085           
       2.169073             0.00760087588            0.000486390678           
       2.171714             0.00757738622            0.000482008149           
       2.174354             0.00756587399            0.000503271248           
       2.176995             0.00793193476            0.000513134096           
       2.179635             0.00716513022            0.000515360699           
       2.182275             0.00808536797            0.000516885247           
       2.184916             0.00681273271            0.000458272341           
       2.187556             0.00739938411            0.000472809211           
       2.190196               0.007427092            0.000495003462           
       2.192837             0.00799875965            0.000510905748           
       2.195477             0.00780319479            0.000481096598           
       2.198118             0.00755630713             0.00048555546           
       2.200758             0.00710262042            0.000482964279           
       2.203398             0.00755063674            0.000501149131           
       2.206039             0.00711775822            0.000460498882           
       2.208679             0.00745820493            0.000482353621           
       2.211319             0.00722435267            0.000477468585           
       2.213960             0.00697233466            0.000475351238           
       2.216600             0.00773591832            0.000517967592           
       2.219241             0.00793267372            0.000501292916           
       2.221881             0.00695991185            0.000470517368           
       2.224521              0.0070750419            0.000480206168           
       2.227162             0.00660143094            0.000454567567           
       2.229802             0.00738865668            0.000495962498           
       2.232443              0.0077803944            0.000500912901           
       2.235083              0.0075228079            0.000507080133           
       2.237723              0.0067356176            0.000460453745           
       2.240364              0.0073694446            0.000493496617           
       2.243004             0.00787409866            0.000506041992           
       2.245644             0.00813613201             0.00051954187           
       2.248285             0.00656326256            0.000457280748           
       2.250925             0.00728727465            0.000484770053           
       2.253566             0.00674924788            0.000498757808           
       2.256206             0.00683149907            0.000491754435           
       2.258846             0.00712105918            0.000477605585           
       2.261487             0.00635630301            0.000473609302           
       2.264127             0.00777735134            0.000505957305           
       2.266767             0.00659490896            0.000478323539           
       2.269408             0.00763579428            0.000516796157           
       2.272048             0.00632983405            0.000467722436           
       2.274689             0.00752784956            0.000516788142           
       2.277329             0.00708565799            0.000472081757           
       2.279969             0.00710191997            0.000503080302           
       2.282610             0.00747815774            0.000501876278           
       2.285250             0.00638236474            0.000443775957           
       2.287891             0.00737243853            0.000511369109           
       2.290531             0.00691518576            0.000501914831           
       2.293171             0.00660590194            0.000477852034           
       2.295812             0.00686428323             0.00048514967           
       2.298452             0.00722878569            0.000520633551           
       2.301092             0.00677635998            0.000468350365           
       2.303733             0.00741859201            0.000509814948           
       2.306373             0.00778610939            0.000530515728           
       2.309014             0.00698168786            0.000492563692           
       2.311654             0.00807042626            0.000552640391           
       2.314294             0.00714299091             0.00047900191           
       2.316935             0.00693954487            0.000474081762           
       2.319575             0.00718770529            0.000505531524           
       2.322215             0.00652718424            0.000502058266           
       2.324856             0.00767384655            0.000500495859           
       2.327496             0.00734294831             0.00052058387           
       2.330137             0.00777123822            0.000512481946           
       2.332777             0.00678291888            0.000493679784           
       2.335417             0.00677513529            0.000478668326           
       2.338058             0.00653366579            0.000484102686           
       2.340698              0.0080179439            0.000532064394           
       2.343339             0.00729412274             0.00051864792           
       2.345979             0.00620826238            0.000452687798           
       2.348619             0.00752797953            0.000516707455           
       2.351260             0.00756759765            0.000515046955           
       2.353900             0.00757014113            0.000513501666           
       2.356540             0.00750310743            0.000510497385           
       2.359181             0.00830560612            0.000529574338           
       2.361821             0.00664746063            0.000457650876           
       2.364462             0.00596865645             0.00045354923           
       2.367102             0.00808935062            0.000542615767           
       2.369742             0.00774815617            0.000558965965           
       2.372383             0.00685370459            0.000476031996           
       2.375023              0.0078659917            0.000536095849           
       2.377663             0.00754045185            0.000501867393           
       2.380304             0.00708756859            0.000494675685           
       2.382944             0.00701470696            0.000468734851           
       2.385585             0.00705091501            0.000501202348           
       2.388225             0.00713416592             0.00050178355           
       2.390865             0.00705179662            0.000493753812           
       2.393506              0.0060170345            0.000447486639           
       2.396146              0.0067498436            0.000512459842           
       2.398787             0.00696905572             0.00047987913           
       2.401427              0.0063100902            0.000440751434           
       2.404067              0.0073068548            0.000484866219           
       2.406708             0.00660949643            0.000455618657           
       2.409348             0.00766170589            0.000520320371           
       2.411988             0.00732404999            0.000498438719           
       2.414629             0.00772656562            0.000527896305           
       2.417269             0.00642204197            0.000486892492           
       2.419910             0.00724018196            0.000518176652           
       2.422550             0.00696996008            0.000486420001           
       2.425190             0.00600663345            0.000475987426           
       2.427831             0.00738351581            0.000524763127           
       2.430471             0.00687420341            0.000482387388           
       2.433112             0.00716261212            0.000479482909           
       2.435752             0.00737369204            0.000514865413           
       2.438392             0.00785317337            0.000512853214           
       2.441033             0.00772646651            0.000539118775           
       2.443673             0.00721839015             0.00052149232           
       2.446313             0.00758390993            0.000535004051           
       2.448954             0.00691032762            0.000486251013           
       2.451594             0.00703092852            0.000527376044           
       2.454235             0.00655198828            0.000477663049           
       2.456875             0.00700343884            0.000516738991           
       2.459515              0.0080518006            0.000568410039           
       2.462156             0.00830064163            0.000544887855           
       2.464796             0.00767547375            0.000517206907           
       2.467436             0.00789400885            0.000542413377           
       2.470077             0.00863810339            0.000537794015           
       2.472717             0.00738736181            0.000499492141           
       2.475358             0.00764654765            0.000513477767           
       2.477998             0.00703056999            0.000484061129           
       2.480638              0.0072434758            0.000500066426           
       2.483279             0.00932554983            0.000593026295           
       2.485919             0.00657398184            0.000479850267           
       2.488560              0.0073781029            0.000506930778           
       2.491200             0.00728837467             0.00051882086           
       2.493840             0.00739040623            0.000552809707           
       2.496481             0.00663260231             0.00051513449           
       2.499121             0.00692075092            0.000511818741           
       2.501761             0.00694947959            0.000519675349           
       2.504402             0.00705157134              0.0005158306           
       2.507042             0.00665173445            0.000497281616           
       2.509683              0.0070603476            0.000504497722           
       2.512323             0.00682972579            0.000521122525           
       2.514963             0.00716226288            0.000527065323           
       2.517604             0.00793786374            0.000575762813           
       2.520244             0.00866782848            0.000564051903           
       2.522884             0.00746449368            0.000530922246           
       2.525525             0.00964535719            0.000610367592           
       2.528165             0.00759512195            0.000533183522           
       2.530806             0.00835881553            0.000569097077           
       2.533446              0.0102648323            0.000617191346           
       2.536086             0.00895442606            0.000571292043           
       2.538727             0.00737818906             0.00049749688           
       2.541367             0.00610398496            0.000456961144           
       2.544008             0.00891151441            0.000570224646           
       2.546648             0.00752012097            0.000532805614           
       2.549288             0.00774626057             0.00055177573           
       2.551929             0.00745263378             0.00053258992           
       2.554569             0.00670875219            0.000486825051           
       2.557209             0.00752569043            0.000520349903           
       2.559850             0.00643131841            0.000482574851           
       2.562490             0.00735588369            0.000533414909           
       2.565131             0.00731103566            0.000551380019           
       2.567771              0.0069516585             0.00051838265           
       2.570411             0.00752743885            0.000533587007           
       2.573052             0.00747608096            0.000538460447           
       2.575692             0.00689181008            0.000513860927           
       2.578332             0.00703389729            0.000521277732           
       2.580973             0.00750594537              0.0005333618           
       2.583613             0.00682553702            0.000496502636           
       2.586254             0.00735397378            0.000514647892           
       2.588894             0.00617282784            0.000489641005           
       2.591534             0.00636519705            0.000514707749           
       2.594175             0.00643883665            0.000507907701           
       2.596815             0.00647573544            0.000512364263           
       2.599456               0.007299976            0.000515868038           
       2.602096              0.0072475871            0.000517925429           
       2.604736             0.00698351478            0.000520457671           
       2.607377             0.00643110035            0.000486286754           
       2.610017              0.0069065793            0.000495124043           
       2.612657             0.00649121744            0.000510557498           
       2.615298              0.0058850363            0.000474619888           
       2.617938             0.00666245059            0.000540217188           
       2.620579             0.00718022139            0.000538377581           
       2.623219             0.00704454979            0.000532506795           
       2.625859              0.0067309871            0.000506092013           
       2.628500             0.00735330871            0.000525503369           
       2.631140             0.00692774422            0.000517929604           
       2.633780             0.00816359352            0.000561743161           
       2.636421             0.00733656574            0.000545625223           
       2.639061             0.00765077682            0.000524527304           
       2.641702             0.00714907182             0.00051877583           
       2.644342             0.00747908162            0.000532875343           
       2.646982             0.00778244853            0.000535448856           
       2.649623             0.00675831835            0.000522906249           
       2.652263             0.00704849359            0.000528655215           
       2.654904             0.00786498914            0.000558997833           
       2.657544             0.00757436139            0.000516698441           
       2.660184             0.00682893995            0.000519213496           
       2.662825              0.0062661148            0.000508895911           
       2.665465             0.00746938591            0.000537369085           
       2.668105             0.00613607793             0.00051337187           
       2.670746              0.0082115499             0.00054861911           
       2.673386               0.008156233            0.000563488369           
       2.676027             0.00886545627            0.000578048175           
       2.678667              0.0096591462            0.000588737128           
       2.681307              0.0115310463            0.000632039342           
       2.683948              0.0160722666            0.000766673685           
       2.686588              0.0110610697            0.000625472193           
       2.689229             0.00930849054            0.000560678822           
       2.691869             0.00998208204            0.000613647852           
       2.694509             0.00880240467            0.000576564489           
       2.697150             0.00690846769            0.000502497971           
       2.699790              0.0075129972             0.00054936247           
       2.702430             0.00726625101            0.000516429273           
       2.705071             0.00757608909            0.000544890652           
       2.707711             0.00712752553            0.000512962108           
       2.710352             0.00609163891            0.000501076365           
       2.712992             0.00683293018            0.000540501762           
       2.715632             0.00632984151            0.000482664279           
       2.718273             0.00655544533            0.000509052708           
       2.720913             0.00750694004            0.000543194864           
       2.723553             0.00697953931            0.000527280527           
       2.726194             0.00665230492            0.000538105813           
       2.728834              0.0074828743            0.000570978223           
       2.731475             0.00859086873            0.000564630459           
       2.734115             0.00784721212            0.000556387093           
       2.736755             0.00609593704            0.000494424005           
       2.739396             0.00620694977            0.000496015073           
       2.742036             0.00673058151             0.00054056464           
       2.744677             0.00702931306            0.000536010037           
       2.747317             0.00780999412             0.00056096259           
       2.749957             0.00759019672            0.000556893593           
       2.752598             0.00667710653            0.000527992399           
       2.755238             0.00695138567            0.000548452829           
       2.757878             0.00799435497             0.00058301733           
       2.760519             0.00870228337            0.000601834179           
       2.763159             0.00815342551            0.000576724566           
       2.765800             0.00763395804            0.000531813152           
       2.768440             0.00781777151            0.000542142367           
       2.771080             0.00748346114             0.00053485144           
       2.773721             0.00695370882            0.000528872832           
       2.776361             0.00785729465            0.000569941258           
       2.779001             0.00742567428            0.000573791513           
       2.781642             0.00562232566            0.000495600553           
       2.784282             0.00747461188            0.000580833343           
       2.786923              0.0076744952            0.000593730364           
       2.789563             0.00667082226            0.000533130204           
       2.792203             0.00777129398             0.00054969715           
       2.794844             0.00731538075            0.000584519986           
       2.797484             0.00643328522            0.000517317342           
       2.800125             0.00708139168            0.000570701961           
       2.802765             0.00735798601            0.000571732908           
       2.805405             0.00610338609            0.000522476268           
       2.808046             0.00643051429            0.000545723128           
       2.810686             0.00593389612            0.000481703751           
       2.813326             0.00649133563            0.000523331966           
       2.815967             0.00699679707             0.00055877353           
       2.818607             0.00804381209            0.000571729101           
       2.821248             0.00763438285            0.000545424996           
       2.823888             0.00705386497             0.00054421386           
       2.826528             0.00632946886            0.000499248914           
       2.829169             0.00811461369            0.000592104297           
       2.831809             0.00741885078            0.000573852319           
       2.834449             0.00628404797            0.000531480758           
       2.837090             0.00750520395            0.000560989674           
       2.839730             0.00756033187            0.000560297183           
       2.842371             0.00752160681            0.000559666955           
       2.845011             0.00675693088            0.000534683918           
       2.847651             0.00644863341            0.000522985057           
       2.850292             0.00669374052            0.000538060757           
       2.852932             0.00685075228            0.000556197564           
       2.855573             0.00645583953            0.000523745943           
       2.858213              0.0074072798            0.000589132718           
       2.860853             0.00708263745            0.000535884864           
       2.863494             0.00663861108            0.000537160638           
       2.866134             0.00671390121             0.00056146895           
       2.868774             0.00702167811            0.000564315107           
       2.871415             0.00725160667            0.000582412868           
       2.874055             0.00645690412            0.000525324204           
       2.876696              0.0065776645            0.000544555432           
       2.879336             0.00763675427            0.000565524016           
       2.881976             0.00686236271            0.000552934494           
       2.884617             0.00708440116            0.000553557636           
       2.887257             0.00755987885            0.000574783858           
       2.889897             0.00738355078            0.000556350278           
       2.892538             0.00719416304            0.000601616366           
       2.895178             0.00751511855            0.000555512132           
       2.897819             0.00687854831            0.000542144286           
       2.900459             0.00653022039            0.000517963017           
       2.903099             0.00737461668            0.000544798815           
       2.905740              0.0071996626            0.000552224624           
       2.908380             0.00684209742            0.000544453873           
       2.911021             0.00656923496            0.000542160664           
       2.913661             0.00697775477            0.000558596649           
       2.916301             0.00650119417            0.000539698246           
       2.918942             0.00701039991            0.000536070582           
       2.921582              0.0064153492             0.00053655224           
       2.924222             0.00712032157            0.000547632528           
       2.926863             0.00733026156            0.000578770744           
       2.929503             0.00668967516            0.000559453998           
       2.932144             0.00767035223            0.000575059903           
       2.934784             0.00676017089            0.000531011658           
       2.937424             0.00685543982             0.00054023033           
       2.940065             0.00646952061            0.000500613681           
       2.942705                0.00684744            0.000514381782           
       2.945346             0.00653666368            0.000533357608           
       2.947986             0.00756693492            0.000585131158           
       2.950626             0.00622038378            0.000527533049           
       2.953267             0.00696697952            0.000549273954           
       2.955907             0.00660125183            0.000554639075           
       2.958547             0.00659721655            0.000523447679           
       2.961188              0.0057730883            0.000510854898           
       2.963828             0.00788065666             0.00058384236           
       2.966469              0.0061309883            0.000505181126           
       2.969109             0.00745320001            0.000565250289           
       2.971749             0.00782576416            0.000575592357           
       2.974390             0.00736628791            0.000548768819           
       2.977030             0.00813845823            0.000589705254           
       2.979670              0.0094946541            0.000619553891           
       2.982311              0.0104727695            0.000674401473           
       2.984951             0.00727166021            0.000534472321           
       2.987592             0.00658400722            0.000518759631           
       2.990232             0.00845082857            0.000611222749           
       2.992872             0.00854289717            0.000578865012           
       2.995513              0.0088553804            0.000576584969           
       2.998153              0.0119082118             0.00067985933           
       3.000794              0.0126805779            0.000679533698           
       3.003434              0.0116748747            0.000653014502           
       3.006074              0.0511895833             0.00134820958           
       3.008715               0.136374022             0.00212422664           
       3.011355               0.180825472             0.00235877963           
       3.013995              0.0875644651             0.00164589269           
       3.016636              0.0621895292             0.00135826336           
       3.019276               0.138164903              0.0019900718           
       3.021917               0.535606256              0.0037675922           
       3.024557                1.73146632             0.00666005892           
       3.027197                1.08647459              0.0051435386           
       3.029838               0.505847475             0.00355941813           
       3.032478               0.250312723             0.00250640954           
       3.035118              0.0702126374             0.00134525929           
       3.037759               0.101131539             0.00161243037           
       3.040399               0.147628463             0.00200956689           
       3.043040               0.565985369             0.00398300603           
       3.045680               0.367249387             0.00301865206           
       3.048320              0.0834011313             0.00146982509           
       3.050961               0.109847491             0.00171656593           
       3.053601              0.0849229436             0.00145364681           
       3.056242              0.0564747644             0.00126035721           
       3.058882               0.050526502             0.00127880867           
       3.061522              0.0403940204               0.001121828           
       3.064163              0.0509256214             0.00124374793           
       3.066803               0.109284961             0.00191815615           
       3.069443               0.107105585             0.00198677117           
       3.072084              0.0458171587             0.00126530667           
       3.074724              0.0381153467             0.00128883119           
       3.077365              0.0820253429             0.00195719326           
       3.080005                0.01490363            0.000838995619           
       3.082645              0.0110207867            0.000757924035           
       3.085286              0.0116331977            0.000784841436           
       3.087926             0.00856534327            0.000668258686           
       3.090566                0.01048585            0.000724460286           
       3.093207              0.0109410683            0.000770065917           
       3.095847             0.00880453563            0.000662119585           
       3.098488             0.00734887262            0.000670745987           
       3.101128              0.0100465631            0.000789297128           
       3.103768             0.00966412753            0.000759564458           
       3.106409             0.00777563638            0.000725107984           
       3.109049              0.0072133171            0.000670216803           
       3.111690             0.00863485689            0.000720701063           
       3.114330             0.00862711916            0.000735702892           
       3.116970             0.00764067232            0.000697680774           
       3.119611              0.0163961135             0.00108787796           
       3.122251              0.0221647313             0.00132308145           
       3.124891              0.0347807624             0.00167282881           
       3.127532              0.0247302147             0.00137995203           
       3.130172              0.0134321631             0.00103457808           
       3.132813             0.00946938222            0.000855168358           
       3.135453             0.00612052603            0.000681856511           
       3.138093             0.00712506491            0.000797142799           
       3.140734             0.00766760485            0.000762911556           
       3.143374               0.006799978             0.00075979498           
       3.146014             0.00716260749            0.000839480617           
       3.148655             0.00543043139            0.000679492893           
       3.151295             0.00530215035            0.000715502136           
       3.153936             0.00575394437            0.000719998037           
       3.156576             0.00540648403            0.000688427344           
       3.159216             0.00609710204            0.000734732448           
       3.161857             0.00609660158            0.000731712217           
       3.164497             0.00745301481            0.000850053038           
       3.167138             0.00867348606            0.000947501249           
       3.169778             0.00690369835            0.000831384735           
       3.172418              0.0074472062            0.000854707931           
       3.175059             0.00470052852            0.000601996365           
       3.177699             0.00621270966            0.000732878874           
       3.180339             0.00663590002            0.000811525808           
       3.182980             0.00635505798            0.000821088624           
       3.185620             0.00583188234            0.000801049561           
       3.188261             0.00592428518            0.000821778538           
       3.190901             0.00452243603            0.000660349469           
       3.193541             0.00585114912            0.000789243927           
       3.196182             0.00774688883            0.000946415471           
       3.198822             0.00542384186            0.000792167862           
       3.201463             0.00647165835            0.000850401491           
       3.204103              0.0044083869            0.000697598765           
       3.206743              0.0052852828            0.000763764031           
       3.209384             0.00655631211            0.000919063137           
       3.212024             0.00501254179            0.000749215194           
       3.214664             0.00592833279            0.000926528416           
       3.217305             0.00482123426            0.000794246393           
       3.219945              0.0069373451            0.000980611724           
       3.222586              0.0038888766            0.000699310295           
       3.225226             0.00634010458            0.000990540831           
       3.227866             0.00619705369            0.000895072517           
       3.230507             0.00609343971            0.000920051027           
       3.233147             0.00736085347             0.00101938332           
       3.235787             0.00501900725            0.000861424409           
       3.238428              0.0070470253              0.0011014976           
       3.241068             0.00645138375            0.000985466277           
       3.243709             0.00448183728            0.000848614579           
       3.246349             0.00614274287            0.000905659002           
       3.248989             0.00613502619              0.0010687097           
       3.251630             0.00274981641            0.000688997073           
       3.254270             0.00578894894            0.000893451863           
       3.256911             0.00623912805             0.00101205047           
       3.259551             0.00513268488            0.000988240247           
       3.262191             0.00473921219            0.000969974795           
       3.264832             0.00539471777              0.0010812989           
       3.267472             0.00628146868              0.0010945727           
       3.270112             0.00604207547             0.00118636806           
       3.272753             0.00447995914            0.000935057213           
       3.275393             0.00323113464            0.000810265153           
       3.278034             0.00565947119             0.00107295622           
       3.280674             0.00527012781             0.00112354368           
       3.283314             0.00419940711            0.000896980476           
       3.285955             0.00570416729              0.0010786298           
       3.288595              0.0078636644             0.00140897539           
       3.291235             0.00479160529             0.00113063114           
       3.293876             0.00326685055            0.000946981334           
       3.296516             0.00378021282            0.000977949187           
       3.299157             0.00564453651             0.00117999661           
       3.301797             0.00415580224             0.00115494077           
       3.304437             0.00651701918             0.00125304208           
       3.307078             0.00495728806             0.00120384901           
       3.309718             0.00561129725             0.00132201651           
       3.312359             0.00781285585             0.00156031866           
       3.314999             0.00481121651             0.00120555678           
       3.317639             0.00581692848              0.0012677577           
       3.320280             0.00436133988             0.00116712382           
       3.322920             0.00386191901             0.00111675347           
       3.325560             0.00577223225             0.00136622611           
       3.328201             0.00524435804             0.00117283979           
       3.330841             0.00778088951             0.00173868151           
       3.333482              0.0062503885             0.00147297785           
       3.336122             0.00483857365             0.00129658496           
       3.338762             0.00644437746              0.0017285144           
       3.341403             0.00465053816             0.00140308183           
       3.344043             0.00504542092             0.00140310004           
       3.346683             0.00404867671             0.00128317991           
       3.349324             0.00564899866             0.00170415918           
       3.351964              0.0063085413              0.0019043815           
       3.354605             0.00753152095             0.00237971548           
       3.357245              0.0072742541             0.00210977277           
       3.359885             0.00708836612             0.00166686372           
       3.362526             0.00301961655             0.00136050817           
       3.365166             0.00544183075             0.00172265616           
       3.367807              0.0035503439             0.00178074733           
       3.370447             0.00366977081             0.00150179338           
       3.373087             0.00413024307             0.00170374963           
       3.375728               0.001765332             0.00125710165           
       3.378368              0.0076999021             0.00389645531           
       3.381008             0.00874763372             0.00309635345           
       3.383649             0.00423304045             0.00172788925           
       3.386289             0.00392510142             0.00196922652           
       3.388930             0.00750138213             0.00430610083           
       3.391570             0.00614904603             0.00275790886           
       3.394210             0.00399064511              0.0028116908           
       3.396851              0.0122691587             0.00551476735           
       3.399491             0.00465380953             0.00339739619           
       3.402131             0.00975886485             0.00696046148           
       3.404772               0.019410224              0.0138858808           
       3.407412                       nan                       nan           
       3.410053             0.00929513272             0.00962099825           
       3.412693                       nan                       nan           
       3.415333              0.0180871798              0.0134335976           
